2013-02-20 18:09:08
64.0
-0.0
-0.0
-0.0
-0.0
-0.0
-0.0
-0.0
-0.0
-0.0
-0.0
0.0
0.01
0.01
-0.0
-0.03
-0.05
-0.05
0.0
0.13
0.36
0.66
1.01
1.37
1.72
2.06
2.4
2.79
3.24
3.8
4.42
5.06
5.66
6.2
6.68
7.15
7.68
8.31
9.14
10.09
11.04
11.88
12.56
13.14
13.76
14.65
15.96
17.91
20.32
22.9
25.38
27.58
29.57
31.68
34.32
37.81
42.54
48.15
54.1
59.83
64.97
69.58
74.14
79.34
85.71
93.76
103.0
112.62
121.73
129.77
136.75
143.3
150.0
150.0
150.0
150.0
150.0
150.0
150.0
150.0
150.0
150.0
150.0
132.76
80.05
23.07
-34.94
-92.44
-149.16
-150.0
-150.0
-150.0
-150.0
-150.0
-150.0
-150.0
-150.0
-150.0
-150.0
-150.0
-150.0
-150.0
-150.0
-150.0
-150.0
-150.0
-150.0
-150.0
-150.0
-102.95
-52.37
-5.9
35.58
71.43
101.35
125.5
144.38
150.0
150.0
150.0
150.0
150.0
150.0
150.0
150.0
150.0
150.0
150.0
148.81
141.3
133.69
126.02
118.33
110.69
103.16
95.8
88.68
81.83
75.25
68.95
62.95
57.25
51.86
46.78
42.03
37.59
33.45
29.61
26.07
22.81
19.83
17.11
14.67
12.48
10.54
8.83
7.35
6.07
4.97
4.05
3.27
2.62
2.09
1.65
1.3
1.01
0.79
0.61
0.47
0.37
0.29
0.23
0.19
0.16
0.14
0.14
0.14
0.16
0.18
0.21
0.24
0.28
0.32
0.36
0.41
0.46
0.5
0.55
0.6
0.65
0.71
0.77
0.83
0.9
0.97
1.06
1.15
1.26
1.38
1.51
1.66
1.82
2.0
2.21
2.44
2.7
3.0
3.33
3.67
4.01
4.35
4.7
5.07
5.49
5.98
6.56
7.19
7.88
8.58
9.29
10.0
10.76
11.57
12.48
13.49
14.58
15.7
16.8
17.82
18.8
19.73
20.66
21.57
22.37
22.87
22.8
21.9
20.0
17.08
13.3
8.95
4.27
-0.51
-5.3
-10.16
-15.16
-20.25
-25.19
-29.55
-32.86
-34.78
-35.29
-34.76
-33.85
-33.21
-33.29
-34.09
-35.2
-36.02
-36.09
-35.24
-33.84
-32.49
-31.84
-32.39
-34.35
-37.7
-41.96
-46.12
-48.53
-47.37
-41.33
-30.34
-15.94
-0.79
12.31
21.54
26.64
28.62
28.87
28.31
26.99
24.4
20.15
14.56
8.8
4.43
2.91
4.99
10.65
19.03
28.64
37.81
44.93
48.95
49.56
47.21
42.88
37.68
32.48
27.67
23.27
19.11
15.1
11.28
8.1
5.96
5.09
5.43
6.66
8.41
10.37
12.4
14.33
15.91
16.6
15.86
13.3
8.99
3.46
-2.52
-8.3
-13.58
-18.54
-23.65
-29.43
-36.11
-43.41
-50.42
-55.82
-58.04
-55.88
-48.87
-37.68
-23.97
-9.91
2.49
12.0
18.36
22.12
24.15
25.19
25.67
25.75
25.56
25.26
25.02
24.86
24.59
23.99
22.97
21.74
20.72
20.29
20.41
20.62
20.14
18.19
14.33
8.55
1.3
-6.81
-15.03
-22.72
-29.39
-34.82
-39.17
-42.98
-46.99
-51.79
-57.5
-63.38
-68.04
-69.79
-67.24
-59.83
-48.03
-33.18
-16.92
-0.93
13.59
25.85
35.43
42.24
46.5
48.66
49.29
48.89
47.73
45.84
43.16
39.69
35.64
31.38
27.22
23.39
19.95
16.92
14.36
12.28
10.54
8.78
6.5
3.27
-1.01
-6.1
-11.43
-16.45
-20.86
-24.77
-28.65
-33.22
-39.13
-46.67
-55.6
-64.95
-73.13
-78.21
-78.42
-72.69
-61.04
-44.71
-25.81
-6.87
9.95
23.25
32.64
38.52
41.69
42.92
42.72
41.42
39.35
37.0
34.88
33.3
32.16
31.03
29.48
27.45
25.44
24.24
24.43
25.94
27.97
29.27
28.77
25.96
21.05
14.76
7.88
1.08
-5.39
-11.59
-17.9
-24.95
-33.5
-44.13
-56.81
-70.61
-83.53
-92.93
-96.23
-91.8
-79.6
-61.21
-39.32
-16.87
3.78
21.31
35.33
46.06
53.8
58.77
61.17
61.3
59.71
57.21
54.62
52.57
51.35
50.9
50.85
50.7
49.95
48.31
45.74
42.54
39.14
35.92
32.88
29.55
25.21
19.21
11.36
2.12
-7.61
-16.89
-25.17
-32.51
-39.57
-47.25
-56.38
-67.36
-79.94
-93.07
-104.96
-113.39
-116.15
-111.66
-99.58
-81.0
-58.18
-33.95
-10.85
9.42
26.18
39.54
49.95
57.83
63.5
67.18
69.21
70.13
70.56
71.07
72.01
73.48
75.37
77.32
78.84
79.3
78.11
74.95
70.05
64.12
58.17
53.16
49.7
47.88
47.47
48.16
49.75
52.12
55.12
58.44
61.64
64.24
65.84
66.07
64.51
60.43
52.94
41.23
25.05
5.28
-15.85
-35.03
-48.72
-54.3
-51.25
-41.58
-29.37
-19.47
-15.81
-20.12
-31.57
-47.45
-64.59
-80.53
-94.24
-105.93
-116.31
-125.85
-134.47
-141.61
-146.68
-149.39
-149.82
-148.29
-145.21
-140.78
-135.13
-128.58
-121.71
-115.56
-111.4
-110.4
-113.16
-119.44
-128.15
-137.65
-146.17
-150.0
-150.0
-150.0
-150.0
-144.92
-135.9
-124.6
-111.53
-97.47
-83.19
-69.14
-55.02
-39.74
-21.82
-0.12
25.53
54.06
83.5
111.67
136.9
150.0
150.0
150.0
150.0
150.0
150.0
150.0
150.0
150.0
150.0
150.0
146.02
134.99
126.72
121.31
118.33
117.06
116.73
116.66
116.32
115.28
113.19
109.84
105.17
99.42
92.99
86.35
79.9
73.85
68.2
62.79
57.4
51.89
46.17
40.08
33.28
25.18
15.0
2.13
-13.35
-30.36
-46.81
-60.14
-68.09
-69.52
-64.84
-55.84
-45.21
-35.76
-29.78
-28.66
-32.85
-41.94
-54.87
-70.19
-86.27
-101.59
-114.92
-125.49
-133.0
-137.54
-139.36
-138.63
-135.29
-128.99
-119.26
-105.9
-89.3
-70.65
-51.82
-34.96
-21.9
-13.76
-10.7
-12.1
-16.89
-23.88
-32.11
-40.89
-49.97
-59.5
-69.92
-81.56
-94.16
-106.48
-116.37
-121.33
-119.43
-110.02
-93.97
-73.3
-50.39
-27.26
-5.38
14.33
31.13
44.34
53.38
58.07
58.82
56.62
52.77
48.46
44.44
40.89
37.57
34.07
30.08
25.51
20.51
15.35
10.28
5.44
0.93
-3.23
-7.03
-10.5
-13.74
-16.96
-20.37
-24.22
-28.74
-34.28
-41.36
-50.65
-62.76
-77.87
-95.33
-113.43
-129.57
-140.8
-144.56
-139.45
-125.54
-104.34
-78.25
-49.87
-21.41
5.58
30.16
51.68
69.46
82.82
91.22
94.66
93.88
90.26
85.45
80.71
76.6
72.9
69.02
64.45
59.18
53.6
48.16
42.96
37.64
31.52
23.99
14.96
4.98
-4.94
-13.75
-20.84
-26.22
-30.56
-34.95
-40.48
-48.05
-57.99
-69.9
-82.47
-93.56
-100.46
-100.55
-91.98
-74.29
-48.59
-17.28
16.69
50.44
81.8
109.38
132.52
150.0
150.0
150.0
150.0
150.0
150.0
150.0
150.0
150.0
150.0
150.0
150.0
150.0
150.0
150.0
150.0
150.0
150.0
150.0
150.0
150.0
144.2
108.52
73.56
39.66
6.52
-26.7
-61.06
-97.54
-136.75
-150.0
-150.0
-150.0
-150.0
-150.0
-150.0
-150.0
-150.0
-150.0
-150.0
-150.0
-150.0
-150.0
-150.0
-150.0
-150.0
-139.89
-116.67
-93.95
-71.97
-50.96
-31.1
-12.46
4.92
21.12
36.27
50.52
63.88
76.19
86.98
95.59
101.42
104.17
104.03
101.63
97.79
93.15
87.89
81.66
73.79
63.68
51.36
37.82
25.01
15.61
12.27
16.92
30.15
50.86
76.49
103.56
128.53
148.59
150.0
150.0
150.0
150.0
150.0
148.72
136.19
122.61
109.37
97.89
89.14
83.19
79.33
76.4
73.54
70.43
67.34
64.66
62.37
59.8
55.87
49.57
40.58
29.4
17.17
5.1
-6.06
-16.37
-26.61
-37.97
-51.48
-67.52
-85.39
-103.13
-117.82
-126.31
-126.09
-116.11
-97.23
-71.95
-43.73
-15.94
8.87
29.4
45.38
57.2
65.4
70.46
72.76
72.74
71.03
68.39
65.57
63.08
61.08
59.41
57.78
56.01
54.08
52.17
50.46
48.99
47.53
45.59
42.57
38.01
31.87
24.68
17.49
11.55
7.88
6.7
7.19
7.67
6.06
0.81
-8.4
-20.19
-31.72
-39.42
-40.19
-32.46
-16.89
3.86
26.01
45.96
61.35
71.52
77.25
80.03
81.23
81.7
81.73
81.29
80.32
78.79
76.71
73.95
70.23
65.13
58.25
49.39
38.69
26.7
14.28
2.38
-8.29
-17.58
-25.86
-33.89
-42.34
-51.46
-60.83
-69.56
-76.61
-81.25
-83.26
-82.99
-81.16
-78.76
-76.73
-75.95
-77.07
-80.44
-85.87
-92.5
-98.75
-102.56
-101.84
-95.15
-82.24
-64.4
-44.05
-24.12
-7.07
5.78
14.39
19.57
22.39
23.63
23.61
22.43
20.36
18.0
16.25
15.82
16.89
18.75
20.16
19.83
17.13
12.38
6.74
1.47
-2.86
-6.69
-11.36
-18.22
-27.93
-39.92
-52.69
-64.56
-74.36
-81.88
-87.72
-92.83
-98.04
-103.94
-110.81
-118.77
-127.53
-136.08
-142.48
-144.08
-138.3
-123.69
-100.78
-72.14
-41.67
-13.27
10.34
28.2
40.91
49.73
55.73
59.38
60.51
58.93
54.82
49.06
42.97
37.92
34.78
33.64
33.86
34.32
34.02
32.32
29.19
25.08
20.55
16.03
11.62
7.22
2.7
-1.87
-6.16
-9.73
-12.14
-13.15
-12.86
-11.67
-10.24
-9.47
-10.35
-13.87
-20.7
-30.84
-43.32
-56.09
-66.24
-70.83
-67.8
-56.83
-39.66
-19.58
-0.34
15.09
25.34
30.84
33.11
33.89
34.3
34.6
34.4
33.18
30.76
27.4
23.67
20.19
17.37
15.36
14.01
13.01
11.93
10.37
8.03
4.79
0.71
-4.03
-9.25
-14.81
-20.68
-26.81
-32.98
-38.86
-44.02
-48.21
-51.48
-54.21
-56.99
-60.41
-64.87
-70.61
-77.74
-86.14
-95.27
-103.77
-109.34
-109.08
-100.34
-81.65
-53.64
-19.01
18.13
53.5
83.73
107.01
122.96
132.2
135.73
134.65
130.03
123.02
114.82
106.51
98.93
92.47
87.16
82.74
78.82
74.97
70.82
66.01
60.24
53.19
44.5
33.88
21.15
6.38
-9.94
-27.03
-43.82
-59.22
-72.34
-82.54
-89.48
-93.09
-93.54
-91.36
-87.53
-83.57
-81.34
-82.8
-89.46
-101.89
-119.32
-139.49
-150.0
-150.0
-150.0
-150.0
-150.0
-120.51
-83.64
-44.77
-7.84
24.8
52.52
75.72
94.93
110.23
121.19
127.39
128.98
126.88
122.47
117.01
111.11
104.57
96.85
87.6
77.16
66.59
57.18
49.79
44.29
39.53
33.78
25.71
14.96
2.43
-10.17
-21.05
-29.04
-33.94
-36.45
-37.81
-39.44
-42.61
-48.23
-56.54
-66.88
-77.46
-85.61
-88.29
-83.06
-68.9
-46.6
-18.64
11.58
40.58
65.56
84.78
97.56
104.01
104.65
100.19
91.37
78.97
63.82
46.84
28.99
11.12
-6.08
-22.22
-37.08
-50.54
-62.36
-72.15
-79.41
-83.78
-85.28
-84.45
-82.29
-79.93
-78.3
-77.84
-78.42
-79.63
-81.0
-82.31
-83.67
-85.45
-88.09
-91.86
-96.62
-101.61
-105.31
-105.53
-99.92
-86.68
-65.42
-37.54
-6.05
25.29
53.15
75.42
91.52
102.02
107.89
110.0
108.87
104.84
98.43
90.46
81.96
73.87
66.74
60.64
55.28
50.3
45.6
41.46
38.54
37.45
38.3
40.37
41.98
40.96
35.4
24.43
8.75
-9.53
-27.59
-42.86
-53.95
-60.93
-65.16
-68.62
-73.2
-80.09
-89.49
-100.33
-110.31
-116.34
-115.26
-104.91
-85.04
-57.64
-26.46
4.16
30.53
50.49
63.53
70.3
71.9
69.38
63.62
55.5
46.02
36.27
27.25
19.5
13.05
7.59
2.74
-1.51
-4.71
-6.09
-5.05
-1.56
3.61
9.0
13.02
14.51
13.23
9.88
5.75
2.18
0.06
-0.42
0.21
1.1
1.27
0.06
-2.78
-6.98
-11.76
-15.95
-18.26
-17.5
-12.95
-4.58
6.87
20.0
33.12
44.64
53.37
58.69
60.44
58.79
54.07
46.75
37.41
26.72
15.49
4.58
-5.1
-12.61
-17.2
-18.48
-16.48
-11.79
-5.39
1.52
7.7
11.99
13.44
11.47
6.1
-1.97
-11.43
-20.75
-28.75
-35.16
-40.72
-47.03
-55.89
-68.62
-85.38
-104.94
-124.57
-140.56
-149.07
-147.27
-134.21
-111.42
-82.43
-51.77
-23.72
-1.16
14.86
24.92
30.58
33.7
35.93
38.52
42.36
48.07
55.9
65.57
76.19
86.28
94.29
99.08
100.42
98.96
95.88
92.12
87.92
82.65
75.34
65.26
52.46
37.83
22.69
8.34
-4.42
-15.46
-25.24
-34.59
-44.32
-54.79
-65.54
-75.25
-81.84
-83.11
-77.58
-64.98
-46.57
-24.59
-1.71
19.84
38.66
54.19
66.41
75.49
81.57
84.69
84.99
82.76
78.5
72.76
65.97
58.36
50.02
41.11
32.04
23.62
16.76
12.14
9.7
8.4
6.38
1.57
-7.63
-21.7
-39.78
-59.87
-79.41
-95.91
-107.52
-113.37
-113.78
-110.09
-104.36
-98.73
-94.6
-92.1
-89.94
-85.98
-78.06
-64.98
-47.01
-25.73
-3.51
17.4
35.42
49.87
60.88
68.94
74.56
78.08
79.63
79.23
76.94
72.93
67.46
60.84
53.41
45.56
37.75
30.64
24.91
21.08
19.18
18.65
18.25
16.36
11.49
2.79
-9.5
-24.0
-38.52
-50.73
-58.98
-62.89
-63.51
-62.89
-63.35
-66.55
-72.75
-80.66
-87.62
-90.4
-86.21
-73.63
-53.14
-27.1
0.91
27.07
48.26
62.74
70.1
71.07
67.03
59.73
51.06
42.87
36.69
33.4
32.9
34.13
35.46
35.4
33.24
29.37
24.94
21.21
18.83
17.59
16.62
14.95
12.04
7.86
2.81
-2.82
-9.0
-16.03
-24.28
-34.02
-45.36
-58.16
-72.05
-86.14
-98.99
-108.53
-112.59
-109.42
-98.46
-80.49
-57.51
-32.0
-6.23
18.18
40.43
60.26
77.61
92.3
104.02
112.36
117.03
118.03
115.74
110.73
103.64
95.0
85.15
74.29
62.62
50.43
38.02
25.62
13.31
0.92
-11.85
-25.18
-38.98
-52.72
-65.58
-76.66
-85.32
-91.5
-95.72
-98.93
-102.14
-105.88
-109.81
-112.55
-112.11
-106.45
-94.2
-75.18
-50.53
-22.44
6.28
32.88
55.09
71.51
81.76
86.3
86.22
82.91
77.76
71.9
66.24
61.38
57.63
54.93
52.7
49.95
45.55
38.7
29.37
18.36
7.1
-2.89
-10.42
-14.94
-16.55
-15.78
-13.41
-10.24
-7.05
-4.5
-3.15
-3.41
-5.63
-10.26
-17.89
-29.09
-43.97
-61.64
-79.98
-95.85
-105.93
-107.8
-100.87
-86.68
-68.37
-49.64
-33.56
-21.71
-13.98
-8.85
-4.17
2.05
11.01
22.9
36.95
51.74
65.64
77.15
85.15
89.1
89.13
86.02
81.07
75.79
71.63
69.52
69.6
71.22
73.08
73.64
71.62
66.35
58.05
47.75
36.94
27.04
18.81
12.02
5.36
-3.04
-15.04
-31.73
-52.93
-76.94
-100.85
-120.97
-133.64
-136.08
-126.99
-106.95
-78.31
-44.66
-10.06
21.83
48.43
68.41
81.56
88.34
89.53
85.96
78.64
68.71
57.44
45.96
35.02
24.84
15.17
5.6
-4.11
-13.99
-23.88
-33.62
-43.16
-52.49
-61.38
-69.2
-74.94
-77.57
-76.4
-71.49
-63.84
-55.26
-48.06
-44.54
-46.49
-54.57
-67.96
-84.17
-99.51
-109.87
-111.83
-103.65
-85.69
-60.1
-30.02
1.3
31.22
57.97
80.48
98.06
110.11
116.1
115.72
109.22
97.56
82.42
65.98
50.52
37.94
29.39
25.2
24.9
27.52
31.88
36.75
41.13
44.23
45.52
44.66
41.49
36.01
28.43
19.13
8.66
-2.58
-14.52
-27.54
-42.23
-58.88
-76.89
-94.43
-108.76
-116.99
-116.97
-107.96
-90.75
-67.37
-40.34
-12.24
14.74
38.9
59.08
74.59
85.11
90.76
92.06
89.88
85.39
79.93
74.67
70.33
66.88
63.63
59.57
53.95
46.79
39.01
32.11
27.53
25.95
27.04
29.59
31.98
32.82
31.28
27.2
20.92
13.04
4.03
-5.95
-17.25
-30.66
-47.13
-67.24
-90.63
-115.45
-138.46
-150.0
-150.0
-150.0
-136.96
-105.86
-67.05
-25.59
13.57
46.59
71.33
87.38
95.62
97.66
95.25
89.91
82.74
74.45
65.46
55.96
46.09
35.96
25.79
16.06
7.53
1.15
-2.26
-2.38
0.26
4.28
7.76
8.73
5.85
-1.32
-12.3
-26.13
-41.68
-58.08
-74.68
-91.08
-106.87
-121.72
-135.31
-147.47
-150.0
-150.0
-150.0
-150.0
-150.0
-150.0
-135.19
-105.09
-69.18
-31.0
5.92
39.02
67.19
90.43
109.06
123.06
131.89
134.88
131.97
124.09
113.07
101.01
89.48
79.0
69.09
58.79
47.39
35.01
22.7
12.11
4.78
1.48
1.9
4.75
8.27
10.91
11.79
10.73
7.85
3.04
-4.34
-15.42
-31.29
-52.29
-77.45
-104.13
-128.23
-144.9
-149.65
-139.65
-114.82
-78.12
-34.99
8.04
44.99
71.79
86.82
90.71
85.55
74.16
59.46
44.23
30.9
21.38
16.89
17.8
23.7
33.48
45.5
57.92
68.88
76.71
80.29
79.09
73.36
63.95
52.1
39.05
25.83
13.1
1.16
-9.9
-20.06
-29.27
-37.51
-44.83
-51.46
-57.71
-63.71
-69.06
-72.74
-73.04
-68.21
-56.92
-38.92
-15.35
11.54
38.81
63.71
84.32
99.85
110.58
117.36
121.14
122.53
121.72
118.6
113.03
105.01
94.71
82.34
68.07
52.08
34.77
17.02
0.19
-14.09
-24.39
-30.04
-31.39
-29.69
-26.72
-24.16
-23.2
-24.34
-27.49
-32.29
-38.35
-45.49
-53.79
-63.48
-74.73
-87.44
-100.93
-113.93
-124.63
-131.07
-131.64
-125.55
-113.09
-95.44
-74.39
-51.77
-29.08
-7.3
13.05
31.61
47.98
61.47
71.39
77.18
78.81
76.88
72.58
67.4
62.73
59.49
58.03
58.15
59.42
61.49
64.24
67.61
71.41
74.99
77.24
76.87
72.84
64.74
52.68
37.13
18.36
-3.62
-29.03
-57.83
-89.31
-121.88
-150.0
-150.0
-150.0
-150.0
-150.0
-150.0
-150.0
-108.11
-59.11
-8.84
38.19
78.72
110.97
134.42
149.2
150.0
150.0
147.28
134.52
118.22
100.08
81.43
63.13
45.65
29.33
14.46
1.28
-10.24
-20.49
-30.09
-39.49
-48.57
-56.6
-62.43
-65.13
-64.32
-60.52
-55.01
-49.56
-46.12
-46.46
-51.87
-62.68
-77.91
-95.07
-110.42
-119.83
-119.95
-109.27
-88.6
-60.78
-29.81
0.26
26.29
46.56
60.8
69.76
74.59
76.22
75.07
71.07
64.01
54.05
42.01
29.35
17.77
8.65
2.73
0.1
0.41
3.22
8.0
14.04
20.28
25.4
28.03
27.29
23.09
16.14
7.55
-1.66
-11.06
-20.94
-32.09
-45.24
-60.54
-77.11
-93.08
-106.04
-113.73
-114.73
-108.9
-97.36
-82.07
-65.22
-48.66
-33.53
-20.12
-8.13
3.08
13.98
24.75
35.24
45.03
53.74
61.05
66.88
71.16
73.8
74.56
73.22
69.73
64.41
58.02
51.54
45.95
41.79
39.04
37.13
35.26
32.8
29.34
24.78
18.88
11.03
0.15
-14.95
-35.0
-59.77
-87.69
-115.97
-141.04
-150.0
-150.0
-150.0
-143.54
-113.14
-73.82
-30.02
13.37
52.09
83.23
105.44
118.75
124.14
123.14
117.48
108.89
98.88
88.49
78.2
67.91
57.34
46.33
35.17
24.52
15.11
7.29
0.84
-5.08
-11.55
-19.53
-29.46
-41.1
-53.54
-65.45
-75.44
-82.39
-85.65
-85.21
-81.72
-76.52
-71.23
-67.31
-65.4
-64.86
-63.79
-59.61
-50.12
-34.5
-13.73
9.65
32.46
52.01
66.84
76.84
82.91
86.22
87.73
87.81
86.38
83.0
77.22
68.76
57.61
44.07
28.68
12.33
-3.73
-17.82
-28.04
-32.63
-30.58
-22.1
-8.77
6.83
22.0
34.65
43.7
48.92
50.39
47.92
40.96
28.82
11.36
-10.51
-34.66
-58.0
-77.21
-89.42
-92.8
-86.86
-72.47
-51.58
-26.96
-1.68
21.24
39.28
50.58
54.23
50.37
40.15
25.62
9.45
-5.57
-17.0
-23.15
-23.36
-18.0
-8.35
3.78
16.42
27.8
36.61
42.12
44.14
42.97
39.24
33.84
27.67
21.49
15.68
10.15
4.38
-2.41
-11.07
-22.14
-35.71
-51.18
-67.21
-81.71
-92.09
-95.8
-90.99
-77.26
-56.0
-30.34
-4.32
18.09
34.16
43.08
45.93
44.99
42.71
40.79
39.83
39.56
39.38
38.9
38.02
36.69
34.71
31.69
27.41
22.15
16.84
12.69
10.5
10.13
10.36
9.29
5.22
-2.81
-14.73
-29.59
-46.1
-63.09
-79.87
-96.37
-113.09
-130.73
-149.81
-150.0
-150.0
-150.0
-150.0
-150.0
-150.0
-150.0
-111.28
-66.73
-23.73
13.97
44.51
67.7
84.32
95.45
102.1
105.2
105.6
104.13
101.54
98.27
94.54
90.33
85.58
80.39
74.9
69.25
63.44
57.16
49.87
40.92
29.81
16.32
0.59
-17.0
-35.96
-55.8
-76.15
-96.84
-117.74
-138.54
-150.0
-150.0
-150.0
-150.0
-150.0
-150.0
-113.86
-65.52
-12.69
38.45
82.6
116.49
139.31
150.0
150.0
150.0
150.0
150.0
143.09
134.09
123.22
110.87
97.77
84.91
73.22
63.39
55.46
48.83
42.32
34.51
24.23
10.93
-5.15
-23.09
-41.54
-59.25
-75.36
-89.64
-102.51
-114.9
-127.83
-141.74
-150.0
-150.0
-150.0
-150.0
-150.0
-122.19
-81.04
-34.04
13.02
55.09
88.98
113.54
129.24
137.35
139.34
136.62
130.48
122.01
112.03
100.98
89.08
76.6
64.12
52.66
43.44
37.46
35.13
35.95
38.63
41.54
43.23
42.84
40.26
35.87
30.18
23.39
15.16
4.7
-9.11
-27.25
-50.05
-76.58
-104.3
-129.17
-146.39
-150.0
-142.54
-119.48
-85.68
-46.19
-6.47
29.1
57.88
79.02
92.92
100.53
102.91
101.05
95.88
88.37
79.51
70.22
61.23
53.1
46.18
40.72
36.92
34.95
34.85
36.3
38.45
39.91
39.02
34.51
26.02
14.39
1.5
-10.45
-19.78
-25.96
-29.85
-33.35
-38.75
-48.01
-62.01
-80.21
-100.36
-118.63
-130.35
-131.04
-117.96
-91.09
-53.55
-10.75
31.16
67.05
94.14
112.27
123.07
128.79
131.2
131.0
128.21
122.6
114.31
103.97
92.47
80.74
69.38
58.76
49.05
40.37
32.84
26.38
20.66
15.06
8.79
1.22
-7.91
-18.31
-29.23
-39.67
-48.8
-56.38
-63.04
-70.29
-80.0
-93.52
-110.63
-128.87
-143.72
-149.78
-142.54
-120.19
-84.5
-40.44
5.47
47.23
80.96
105.55
121.93
131.91
137.02
138.01
135.19
128.99
120.42
110.92
101.92
94.27
88.04
82.78
78.01
73.72
70.32
68.25
67.57
67.51
66.8
64.1
58.6
50.41
40.57
30.67
22.36
16.77
14.13
13.66
13.73
12.37
7.89
-0.42
-11.98
-24.95
-36.69
-44.57
-46.81
-43.05
-34.36
-22.94
-11.37
-1.86
4.19
6.38
5.01
0.63
-6.34
-15.69
-27.26
-40.6
-54.76
-68.35
-79.93
-88.55
-94.06
-97.15
-98.87
-100.1
-101.12
-101.59
-100.88
-98.7
-95.48
-92.33
-90.6
-91.22
-94.15
-98.31
-101.89
-102.97
-100.19
-93.09
-82.36
-69.57
-56.75
-45.79
-37.9
-33.26
-30.87
-28.81
-24.73
-16.45
-2.71
16.46
39.58
64.19
87.41
106.7
120.33
127.51
128.27
123.26
113.44
100.16
84.95
69.41
54.99
42.7
33.02
26.01
21.51
19.26
18.87
19.76
20.97
21.36
19.76
15.43
8.11
-1.91
-14.05
-27.65
-42.13
-57.05
-72.21
-87.62
-103.62
-120.64
-138.76
-150.0
-150.0
-150.0
-150.0
-150.0
-143.2
-107.03
-66.34
-27.16
5.84
30.49
47.16
57.79
64.73
69.82
74.04
77.74
80.92
83.48
85.19
85.85
85.27
83.56
81.07
78.39
75.96
73.88
71.71
68.7
64.08
57.43
48.9
39.14
29.05
19.41
10.43
1.59
-8.45
-21.61
-39.79
-64.05
-93.72
-125.76
-150.0
-150.0
-150.0
-150.0
-132.49
-87.44
-36.51
12.83
54.82
86.46
107.37
118.82
122.67
120.6
113.99
104.08
92.15
79.38
66.67
54.5
42.9
31.65
20.57
9.76
-0.3
-8.97
-15.75
-20.74
-24.79
-29.42
-36.23
-46.23
-59.3
-74.13
-88.81
-101.59
-111.6
-119.22
-125.68
-132.48
-140.65
-150.0
-150.0
-150.0
-150.0
-150.0
-139.61
-109.08
-69.82
-26.01
17.47
56.46
88.5
113.0
130.66
142.51
149.34
150.0
149.51
144.15
136.86
129.25
122.46
116.68
111.18
104.78
96.42
85.6
72.43
57.32
40.66
22.71
3.82
-15.35
-33.66
-49.62
-61.92
-69.91
-73.89
-75.12
-75.43
-76.8
-80.83
-88.42
-99.29
-111.62
-122.03
-126.25
-120.33
-102.23
-72.94
-36.47
1.35
34.79
60.01
75.81
83.32
84.76
82.34
77.61
71.48
64.51
57.18
49.85
42.54
34.99
26.77
17.69
8.09
-1.01
-8.23
-12.18
-12.02
-7.88
-1.0
6.5
12.17
14.03
11.12
3.88
-6.15
-16.93
-26.8
-35.1
-42.39
-50.1
-59.95
-73.14
-89.8
-108.59
-126.67
-140.16
-144.99
-138.06
-118.42
-87.8
-50.48
-11.99
22.44
49.42
68.12
79.89
87.14
92.08
95.97
99.0
100.86
101.32
100.55
99.01
97.11
94.96
92.36
89.02
84.91
80.31
75.6
70.89
65.76
59.27
50.42
38.5
23.55
6.29
-12.26
-31.25
-50.34
-69.79
-90.13
-111.75
-134.43
-150.0
-150.0
-150.0
-150.0
-150.0
-150.0
-140.65
-100.92
-58.35
-18.81
13.08
35.01
47.29
52.1
52.47
51.1
49.9
49.97
51.88
55.88
61.91
69.48
77.48
84.26
88.01
87.2
81.07
69.81
54.56
37.07
19.27
2.8
-11.45
-23.58
-34.67
-46.43
-60.78
-79.24
-102.5
-130.01
-150.0
-150.0
-150.0
-150.0
-150.0
-150.0
-150.0
-107.61
-50.39
7.26
59.7
102.95
135.17
150.0
150.0
150.0
150.0
150.0
149.03
136.41
123.09
109.79
96.81
84.21
72.02
60.36
49.5
39.56
30.3
21.06
10.97
-0.59
-13.54
-26.92
-39.1
-48.32
-53.26
-53.54
-49.97
-44.34
-39.07
-36.53
-38.33
-44.79
-54.65
-65.14
-72.52
-73.05
-64.16
-45.3
-18.36
12.87
43.83
70.62
91.01
104.61
112.4
115.74
115.69
112.66
106.68
97.82
86.5
73.55
60.11
47.4
36.56
28.49
23.64
21.93
22.7
24.95
27.51
29.31
29.45
27.32
22.56
15.18
5.65
-5.15
-16.26
-27.0
-37.35
-48.13
-60.75
-76.66
-96.58
-119.68
-143.25
-150.0
-150.0
-150.0
-150.0
-123.43
-85.07
-44.91
-8.96
18.82
37.06
46.58
49.41
47.77
43.47
37.83
31.86
26.43
22.3
20.01
19.82
21.67
25.23
30.12
36.09
43.16
51.45
60.85
70.73
79.72
86.09
88.36
85.98
79.64
71.0
61.93
53.71
46.38
38.75
28.86
14.76
-4.41
-27.65
-51.79
-71.99
-83.2
-81.87
-67.43
-42.6
-12.43
17.65
43.75
64.51
80.82
94.54
107.04
118.33
127.05
131.26
129.34
120.69
105.91
86.6
64.95
43.18
23.04
5.55
-9.15
-21.69
-33.17
-44.82
-57.52
-71.67
-87.03
-102.91
-118.52
-133.29
-147.2
-150.0
-150.0
-150.0
-150.0
-150.0
-150.0
-150.0
-150.0
-150.0
-150.0
-139.69
-82.3
-24.05
28.29
70.13
99.95
119.0
130.18
136.48
139.95
141.35
140.6
137.42
131.96
124.91
117.29
109.97
103.32
97.1
90.69
83.24
73.97
62.33
48.07
31.28
12.4
-7.79
-28.27
-47.93
-65.85
-81.41
-94.46
-105.27
-114.29
-121.85
-127.62
-130.42
-128.2
-118.61
-99.91
-71.91
-36.6
2.1
39.25
70.34
92.51
105.09
109.34
107.54
101.98
94.27
85.3
75.5
65.36
55.54
46.77
39.6
34.04
29.68
25.89
22.14
18.22
14.08
9.68
4.76
-1.08
-8.12
-16.11
-24.14
-30.84
-34.85
-35.55
-33.48
-30.46
-29.18
-32.46
-42.23
-58.72
-79.79
-101.0
-116.46
-120.38
-108.88
-81.58
-41.91
3.77
48.19
85.36
112.05
128.0
134.99
135.38
131.04
123.04
112.1
99.15
85.62
73.16
63.08
55.91
51.42
48.84
47.33
46.26
45.14
43.51
40.71
35.85
28.02
16.53
1.21
-17.47
-38.36
-59.83
-80.11
-97.83
-112.52
-125.05
-137.39
-150.0
-150.0
-150.0
-150.0
-150.0
-150.0
-150.0
-150.0
-138.4
-83.66
-28.09
21.81
62.04
91.5
111.19
123.04
128.97
130.54
129.0
125.53
121.25
117.02
113.28
109.97
106.75
103.34
99.76
96.36
93.54
91.45
89.6
86.95
82.11
73.88
61.77
46.18
28.32
9.73
-8.34
-25.51
-42.34
-60.23
-80.63
-104.19
-129.72
-150.0
-150.0
-150.0
-150.0
-137.2
-95.6
-46.84
1.62
43.61
75.66
97.12
109.23
113.71
111.88
104.57
92.57
77.14
60.16
43.82
30.05
20.11
14.34
12.19
12.52
13.82
14.55
13.41
9.45
2.21
-8.24
-21.26
-35.76
-50.41
-63.95
-75.64
-85.58
-94.72
-104.66
-117.13
-133.33
-150.0
-150.0
-150.0
-150.0
-150.0
-150.0
-150.0
-122.61
-67.99
-11.97
38.4
78.55
107.24
125.98
137.55
144.51
148.29
149.35
147.76
143.84
138.31
132.05
125.68
119.32
112.63
105.23
96.91
87.72
77.82
67.2
55.58
42.56
28.0
12.29
-3.59
-18.31
-30.71
-40.26
-47.35
-53.26
-59.9
-69.37
-83.25
-101.82
-123.39
-144.11
-150.0
-150.0
-149.01
-121.35
-82.11
-37.65
5.06
40.65
66.53
82.84
91.32
94.13
92.88
88.62
82.08
74.09
65.65
57.62
50.54
44.41
38.88
33.56
28.4
23.86
20.88
20.51
23.4
29.34
37.08
44.65
49.92
51.33
48.41
41.73
32.59
22.36
12.1
2.14
-7.79
-18.43
-30.8
-45.66
-63.03
-81.48
-97.88
-107.79
-106.7
-91.82
-63.52
-25.65
15.56
53.54
83.48
103.55
114.57
118.77
118.3
114.37
107.39
97.79
86.77
76.35
68.78
65.5
66.63
71.04
77.12
83.59
90.05
96.49
102.5
106.59
106.15
98.36
81.47
55.73
23.56
-11.3
-45.12
-75.3
-101.0
-122.91
-142.63
-150.0
-150.0
-150.0
-150.0
-150.0
-150.0
-150.0
-150.0
-150.0
-150.0
-127.65
-80.85
-38.89
-4.95
20.28
37.97
49.94
57.73
62.19
63.79
62.98
60.49
57.28
54.23
51.86
50.37
49.69
49.62
50.0
50.62
51.07
50.79
48.99
44.93
38.12
28.6
16.87
3.81
-9.81
-23.78
-38.6
-55.71
-76.89
-103.51
-135.3
-150.0
-150.0
-150.0
-150.0
-150.0
-150.0
-139.08
-86.62
-35.23
9.34
44.3
69.57
86.49
96.67
101.23
100.92
96.47
88.84
79.28
68.91
58.48
48.31
38.48
29.16
20.81
14.07
9.38
6.59
4.72
2.21
-2.64
-10.94
-22.77
-37.1
-52.16
-66.12
-77.82
-87.27
-95.73
-105.32
-118.23
-135.57
-150.0
-150.0
-150.0
-150.0
-150.0
-150.0
-114.6
-61.68
-6.58
44.04
85.72
116.82
138.04
150.0
150.0
150.0
150.0
150.0
150.0
147.06
138.57
129.58
120.6
111.92
103.77
96.45
90.36
85.74
82.32
79.15
74.68
67.34
56.1
41.03
23.3
4.76
-12.76
-28.26
-41.85
-54.76
-68.93
-86.34
-108.15
-133.83
-150.0
-150.0
-150.0
-150.0
-150.0
-134.23
-86.08
-35.01
11.52
48.58
74.59
90.75
99.45
102.96
102.69
99.35
93.67
86.76
79.99
74.65
71.35
69.93
69.66
69.75
69.9
70.31
71.52
73.75
76.51
78.56
78.27
74.33
66.41
55.37
42.87
30.59
19.5
9.42
-0.81
-12.87
-28.19
-47.46
-70.04
-93.64
-114.42
-127.46
-128.08
-113.39
-83.61
-42.45
3.84
48.37
85.68
112.97
130.25
139.31
142.39
141.21
136.65
129.02
118.52
105.56
90.83
75.09
59.04
43.21
27.93
13.4
-0.18
-12.68
-24.15
-34.91
-45.7
-57.44
-70.88
-86.25
-103.03
-120.17
-136.51
-150.0
-150.0
-150.0
-150.0
-150.0
-150.0
-150.0
-150.0
-150.0
-150.0
-150.0
-150.0
-137.34
-79.0
-23.67
22.62
57.15
80.62
95.89
106.22
113.77
119.22
122.22
122.3
119.6
114.98
109.59
104.33
99.6
95.38
91.52
87.89
84.37
80.6
75.97
69.58
60.63
48.67
33.74
16.39
-2.52
-22.08
-41.45
-59.99
-77.26
-92.88
-106.15
-115.64
-119.08
-113.77
-97.62
-70.42
-34.66
4.78
42.01
72.01
92.09
102.32
104.86
102.49
97.36
90.51
81.87
71.01
57.68
42.22
25.58
9.08
-5.96
-18.52
-28.16
-35.02
-39.82
-43.6
-47.37
-51.83
-57.15
-62.84
-67.96
-71.49
-72.76
-71.83
-69.69
-68.04
-68.89
-73.93
-83.87
-97.87
-113.22
-125.57
-129.72
-121.21
-97.85
-60.84
-14.76
33.78
78.13
113.56
138.16
150.0
150.0
150.0
150.0
150.0
143.01
132.19
119.55
105.7
91.13
76.32
61.84
48.4
36.82
27.74
21.23
16.7
13.05
9.1
3.99
-2.59
-10.48
-19.33
-28.8
-38.85
-49.7
-61.96
-76.58
-94.61
-116.54
-141.47
-150.0
-150.0
-150.0
-150.0
-150.0
-124.86
-78.99
-33.17
6.2
35.64
54.81
65.52
70.07
70.31
67.48
62.62
57.01
52.04
48.71
47.1
46.24
44.7
41.43
36.28
30.09
23.98
18.76
14.51
10.82
7.3
4.02
1.46
0.04
-0.49
-1.3
-4.3
-11.59
-24.82
-44.87
-71.64
-103.84
-138.63
-150.0
-150.0
-150.0
-150.0
-150.0
-131.67
-82.05
-32.6
9.94
42.07
63.73
77.13
85.1
89.79
92.31
93.05
92.26
90.47
88.5
87.16
86.94
87.85
89.32
90.36
89.7
86.16
78.93
67.81
53.2
35.85
16.56
-4.03
-25.44
-47.26
-69.08
-90.64
-112.05
-133.82
-150.0
-150.0
-150.0
-150.0
-150.0
-150.0
-150.0
-150.0
-98.64
-38.39
22.19
77.38
123.34
150.0
150.0
150.0
150.0
150.0
150.0
150.0
150.0
150.0
150.0
150.0
146.75
132.16
119.62
109.07
99.89
91.1
81.88
71.82
60.97
49.64
38.09
26.26
13.81
0.25
-14.95
-32.21
-51.84
-73.7
-96.79
-118.61
-135.27
-142.18
-135.69
-114.63
-81.3
-40.97
-0.28
34.93
61.25
78.1
86.98
90.09
89.17
85.04
77.81
67.52
54.62
40.12
25.37
11.67
0.09
-8.72
-14.42
-16.89
-16.29
-13.17
-8.59
-4.09
-1.37
-1.76
-5.76
-12.82
-21.57
-30.33
-37.83
-43.67
-48.33
-52.88
-58.5
-66.07
-75.69
-86.34
-95.61
-99.81
-94.62
-76.53
-44.3
-0.0
51.15
102.15
146.32
150.0
150.0
150.0
150.0
150.0
150.0
150.0
144.05
123.06
102.99
85.21
70.46
58.72
49.31
41.23
33.59
25.9
18.11
10.44
2.98
-4.58
-12.91
-22.76
-34.49
-47.9
-62.29
-76.94
-91.67
-107.02
-124.27
-144.96
-150.0
-150.0
-150.0
-150.0
-150.0
-150.0
-150.0
-150.0
-150.0
-150.0
-105.44
-60.54
-28.45
-9.51
-1.18
0.09
-2.59
-7.19
-12.34
-16.83
-19.28
-18.48
-13.95
-6.32
2.74
11.21
17.49
21.05
22.39
22.64
22.87
23.78
25.61
28.38
32.23
37.45
44.18
52.04
59.97
66.25
68.95
66.47
57.94
43.54
24.46
2.96
-17.88
-34.52
-43.77
-43.55
-33.55
-15.4
7.86
32.66
55.81
75.08
89.29
98.07
101.57
100.44
95.8
89.38
83.24
79.32
78.75
81.36
85.61
88.96
88.68
82.72
70.41
52.59
31.32
9.04
-12.27
-31.68
-49.36
-66.09
-82.68
-99.33
-115.59
-130.62
-143.62
-150.0
-150.0
-150.0
-150.0
-150.0
-150.0
-150.0
-136.4
-113.59
-87.71
-61.17
-36.06
-13.73
5.34
21.18
34.11
44.47
52.64
59.12
64.6
69.86
75.75
83.03
92.31
103.96
117.96
133.72
150.0
150.0
150.0
150.0
150.0
150.0
150.0
137.03
111.6
84.87
59.29
36.56
17.23
0.8
-13.96
-28.24
-42.65
-56.79
-69.22
-77.79
-80.23
-74.9
-61.44
-41.18
-17.03
7.22
27.87
42.36
49.85
51.17
48.13
42.75
36.51
30.1
23.7
17.19
10.54
3.9
-2.6
-8.82
-14.72
-20.28
-25.33
-29.57
-32.61
-34.17
-34.22
-33.01
-31.03
-28.91
-27.34
-26.99
-28.47
-32.27
-38.7
-47.88
-59.79
-74.24
-90.71
-108.03
-124.08
-135.78
-139.51
-132.14
-112.12
-80.34
-40.11
3.56
45.37
81.09
108.35
126.59
136.39
138.65
134.04
123.06
106.44
85.69
63.15
41.74
24.25
12.7
7.98
9.7
16.54
26.49
37.25
46.43
51.94
52.22
46.49
34.82
17.83
-3.6
-28.66
-56.75
-87.48
-120.42
-150.0
-150.0
-150.0
-150.0
-150.0
-150.0
-150.0
-150.0
-150.0
-139.83
-88.96
-44.02
-8.71
16.53
33.86
46.45
56.98
66.75
75.72
83.13
88.13
90.27
89.58
86.65
82.4
77.95
74.33
72.13
71.27
71.04
70.29
67.97
63.5
56.9
48.65
39.35
29.45
19.0
7.68
-5.1
-20.08
-37.82
-58.16
-79.55
-98.71
-111.02
-111.78
-97.95
-69.55
-30.04
14.65
58.04
95.09
123.2
142.21
150.0
150.0
150.0
150.0
139.07
123.62
105.41
86.02
66.83
48.86
32.8
19.3
9.06
2.65
0.16
0.81
2.88
4.13
2.25
-4.43
-16.72
-34.44
-56.56
-81.45
-107.2
-132.03
-150.0
-150.0
-150.0
-150.0
-150.0
-150.0
-150.0
-150.0
-139.65
-92.56
-41.6
6.85
48.04
80.04
103.67
121.15
134.46
144.33
150.0
150.0
148.57
142.1
134.25
126.89
120.89
115.79
110.07
101.82
89.52
72.45
50.86
25.78
-1.22
-28.34
-53.82
-76.17
-94.27
-107.51
-115.87
-119.92
-120.89
-120.32
-119.58
-119.07
-117.63
-112.68
-101.08
-80.67
-51.56
-16.69
18.94
49.97
72.48
85.13
89.03
86.64
80.4
71.77
61.15
48.32
33.23
16.36
-1.22
-18.09
-32.92
-44.71
-52.97
-57.73
-59.45
-58.91
-57.01
-54.64
-52.52
-51.21
-51.03
-52.17
-54.63
-58.33
-63.14
-69.04
-76.2
-84.93
-95.28
-106.52
-116.57
-122.07
-119.09
-104.35
-76.7
-37.82
8.03
55.29
98.83
135.34
150.0
150.0
150.0
150.0
150.0
150.0
150.0
150.0
150.0
150.0
123.7
93.83
66.71
45.02
30.52
23.74
23.87
28.89
35.83
41.22
41.64
34.27
17.6
-8.19
-41.15
-78.17
-115.93
-150.0
-150.0
-150.0
-150.0
-150.0
-150.0
-150.0
-150.0
-150.0
-112.92
-61.34
-15.87
19.47
43.87
59.1
67.84
72.33
73.69
72.08
67.49
60.3
51.54
42.63
34.84
28.89
24.88
22.54
21.57
21.72
22.73
24.02
24.6
23.4
19.73
13.8
6.8
0.37
-4.07
-6.09
-6.41
-6.61
-8.67
-14.31
-24.55
-39.19
-56.52
-72.94
-83.59
-83.58
-69.76
-42.38
-5.44
34.37
69.95
96.11
110.97
115.85
113.87
108.33
101.54
94.52
87.46
80.4
73.61
67.59
62.92
60.02
59.16
60.64
64.82
72.01
81.99
93.56
104.21
110.51
108.97
97.3
75.29
45.07
10.39
-24.58
-56.62
-84.18
-107.53
-128.17
-147.8
-150.0
-150.0
-150.0
-150.0
-150.0
-150.0
-150.0
-119.01
-69.63
-19.46
26.06
63.4
91.23
109.97
120.84
125.13
124.1
119.11
111.99
104.9
99.94
98.31
99.89
103.14
105.78
105.57
101.07
91.93
78.64
62.19
43.65
24.21
5.25
-11.48
-24.03
-30.83
-31.33
-26.66
-19.61
-14.26
-14.83
-24.48
-44.22
-72.19
-103.78
-132.39
-150.0
-150.0
-139.42
-108.93
-68.04
-24.08
16.05
47.7
69.3
81.82
87.51
88.61
86.53
81.88
74.95
66.3
56.83
47.68
39.75
33.42
28.48
24.29
20.14
15.45
10.03
4.04
-2.02
-7.4
-11.26
-12.79
-11.45
-7.2
-0.69
6.6
12.59
15.03
12.1
2.97
-11.86
-30.53
-50.15
-67.26
-78.55
-81.42
-74.52
-58.03
-33.78
-4.94
24.54
50.83
70.98
83.55
88.66
87.62
82.25
74.36
65.38
56.33
47.91
40.55
34.51
29.79
26.21
23.63
22.04
21.72
23.0
25.87
29.76
33.29
34.66
32.11
24.57
12.0
-4.53
-23.24
-42.22
-60.05
-76.28
-91.35
-106.37
-122.27
-139.16
-150.0
-150.0
-150.0
-150.0
-150.0
-126.15
-92.62
-57.73
-26.36
-1.74
14.96
24.23
27.29
25.29
19.0
8.97
-4.08
-19.01
-34.27
-48.05
-58.7
-64.91
-66.06
-62.26
-54.4
-44.02
-32.92
-22.81
-14.81
-9.4
-6.35
-5.08
-5.11
-6.29
-9.01
-14.05
-22.28
-34.37
-50.36
-69.22
-88.47
-104.2
-111.59
-106.2
-85.58
-50.54
-5.33
43.46
88.94
125.91
150.0
150.0
150.0
150.0
150.0
150.0
147.72
130.39
110.96
91.3
73.15
57.62
44.89
34.38
25.01
15.63
5.33
-6.39
-19.64
-34.19
-49.64
-65.52
-81.27
-96.27
-109.86
-121.56
-131.36
-139.94
-148.32
-150.0
-150.0
-150.0
-150.0
-148.18
-116.86
-72.76
-21.23
30.51
75.84
110.75
134.44
148.61
150.0
150.0
150.0
150.0
145.37
136.29
126.39
116.61
107.32
98.08
87.87
75.56
60.55
43.17
24.72
7.08
-7.97
-19.46
-27.64
-34.0
-40.85
-50.77
-66.0
-87.97
-116.9
-150.0
-150.0
-150.0
-150.0
-150.0
-150.0
-150.0
-150.0
-108.47
-50.58
0.61
40.0
65.84
79.29
83.26
80.92
74.54
65.25
53.37
39.21
23.72
8.65
-3.88
-12.19
-15.62
-14.68
-10.64
-5.0
1.08
6.92
12.2
16.68
20.04
21.79
21.45
18.6
12.91
4.15
-7.84
-23.09
-41.06
-60.11
-77.25
-88.34
-89.16
-76.88
-51.47
-16.08
23.69
61.57
92.45
113.59
124.69
126.95
122.0
111.27
95.98
77.65
58.52
41.43
29.19
23.58
24.7
30.77
38.69
45.08
47.47
44.92
38.07
28.41
17.38
5.61
-7.27
-22.19
-40.16
-61.84
-87.25
-115.69
-145.45
-150.0
-150.0
-150.0
-150.0
-150.0
-140.92
-93.06
-42.27
4.54
42.62
70.11
87.51
96.45
98.63
95.24
87.2
75.56
61.96
48.45
37.15
29.6
26.36
26.85
29.54
32.57
34.32
34.02
32.02
29.52
27.97
28.32
30.35
32.63
32.89
28.75
18.32
0.73
-23.59
-52.75
-83.09
-109.39
-125.6
-126.45
-109.31
-75.63
-30.95
16.66
59.28
91.53
111.82
121.72
124.28
122.14
116.53
107.6
95.49
81.32
67.41
56.63
51.26
52.07
58.0
66.68
75.37
81.78
84.7
83.98
80.31
74.65
67.78
60.02
51.07
40.18
26.3
8.33
-14.48
-42.11
-73.13
-104.31
-130.66
-146.52
-147.31
-131.44
-101.45
-63.58
-25.82
4.66
23.7
30.77
28.2
19.36
7.11
-6.94
-22.08
-37.86
-53.4
-67.37
-78.49
-85.99
-89.99
-91.28
-90.9
-89.6
-87.71
-85.19
-81.93
-77.92
-73.17
-67.5
-60.47
-51.55
-40.55
-28.15
-16.07
-6.81
-3.04
-6.84
-19.06
-38.81
-63.2
-87.49
-105.7
-111.88
-101.8
-74.55
-33.14
16.11
65.55
108.46
140.88
150.0
150.0
150.0
150.0
150.0
150.0
150.0
150.0
140.99
130.58
122.31
116.26
111.43
106.27
99.26
89.51
76.93
62.01
45.51
28.19
10.72
-6.24
-22.08
-36.43
-49.44
-61.95
-75.47
-91.67
-111.53
-134.33
-150.0
-150.0
-150.0
-150.0
-142.47
-96.01
-37.05
27.06
89.01
143.45
150.0
150.0
150.0
150.0
150.0
150.0
150.0
150.0
150.0
150.0
150.0
150.0
150.0
150.0
150.0
150.0
150.0
115.53
80.2
47.13
15.17
-17.03
-50.33
-84.57
-118.45
-149.89
-150.0
-150.0
-150.0
-150.0
-150.0
-150.0
-150.0
-150.0
-150.0
-150.0
-150.0
-150.0
-150.0
-150.0
-146.11
-88.29
-36.98
3.7
32.79
51.71
62.79
68.21
69.64
68.33
65.23
60.93
55.37
47.96
37.96
25.23
10.83
-3.0
-13.46
-18.37
-17.21
-11.63
-5.25
-2.51
-7.27
-21.39
-44.03
-71.83
-99.96
-123.77
-140.19
-148.52
-150.0
-148.69
-147.03
-147.93
-150.0
-150.0
-150.0
-150.0
-144.58
-117.28
-78.62
-33.49
11.57
50.54
79.65
97.97
106.77
108.18
104.08
95.66
83.69
69.16
53.49
38.34
25.01
13.99
4.91
-3.03
-10.28
-16.53
-20.74
-21.79
-19.33
-14.31
-8.83
-5.37
-5.71
-10.24
-17.86
-26.64
-34.8
-41.49
-47.16
-53.36
-62.25
-75.82
-95.19
-119.68
-146.36
-150.0
-150.0
-150.0
-150.0
-126.06
-76.54
-22.5
28.09
69.48
99.3
118.27
128.82
133.53
134.19
131.73
126.62
119.52
111.36
103.13
95.51
88.64
82.29
76.24
70.53
65.47
61.32
57.85
54.22
49.23
41.78
31.44
18.63
4.5
-9.67
-22.92
-35.17
-47.18
-60.44
-76.48
-96.1
-118.45
-140.55
-150.0
-150.0
-150.0
-131.67
-93.99
-48.52
-2.22
38.79
70.84
93.08
106.7
113.64
115.46
113.01
106.62
96.71
84.21
70.56
57.44
46.3
37.87
32.05
28.06
24.7
20.77
15.38
8.02
-1.38
-12.57
-25.11
-38.47
-52.15
-65.8
-79.31
-92.86
-106.94
-122.16
-138.95
-150.0
-150.0
-150.0
-150.0
-150.0
-150.0
-131.53
-84.72
-33.52
15.13
55.72
85.57
104.86
115.64
120.48
121.34
119.4
115.15
109.07
102.0
95.03
89.32
85.64
84.09
84.08
84.6
84.55
83.01
79.32
73.02
63.79
51.43
36.07
18.19
-1.33
-21.51
-41.66
-61.71
-82.23
-103.96
-126.98
-149.74
-150.0
-150.0
-150.0
-150.0
-122.14
-75.02
-22.77
27.14
68.88
99.63
119.67
131.43
137.85
141.19
142.48
141.78
138.7
132.99
124.83
114.7
103.31
91.36
79.44
67.89
56.7
45.49
33.65
20.53
5.76
-10.61
-28.11
-45.98
-63.45
-80.03
-95.6
-110.59
-125.87
-142.39
-150.0
-150.0
-150.0
-150.0
-150.0
-150.0
-145.23
-95.06
-37.68
19.1
68.49
106.51
132.52
148.51
150.0
150.0
150.0
150.0
150.0
150.0
142.44
125.51
105.19
83.33
61.9
42.57
26.31
13.47
3.81
-3.26
-8.63
-13.35
-18.57
-25.45
-35.0
-47.9
-64.48
-84.71
-108.21
-134.2
-150.0
-150.0
-150.0
-150.0
-150.0
-150.0
-150.0
-99.56
-41.77
15.0
64.09
101.2
125.06
136.8
138.92
134.04
124.24
110.98
95.37
78.7
62.5
48.45
37.87
31.19
27.7
25.81
23.57
19.43
12.85
4.44
-4.38
-11.98
-17.19
-19.69
-20.08
-19.64
-19.98
-22.83
-29.78
-42.08
-59.91
-81.72
-103.65
-120.02
-124.82
-114.09
-87.64
-49.62
-7.1
32.54
64.16
85.96
98.99
105.3
106.25
101.93
91.91
76.46
57.55
38.61
23.33
14.18
11.46
13.24
16.34
17.78
15.86
10.77
4.12
-2.02
-6.27
-8.73
-11.05
-15.9
-25.95
-42.97
-67.04
-96.26
-126.76
-150.0
-150.0
-150.0
-150.0
-134.63
-98.38
-58.55
-20.95
10.49
34.27
50.77
61.03
65.78
65.12
58.93
47.7
32.93
16.98
2.35
-9.17
-17.15
-22.38
-26.48
-30.97
-36.64
-43.29
-50.03
-55.89
-60.38
-63.92
-67.61
-72.92
-81.0
-92.34
-106.34
-121.31
-134.4
-141.96
-140.18
-126.17
-99.18
-61.26
-17.23
26.61
64.37
92.3
109.71
118.5
121.75
122.1
120.74
117.42
111.29
101.99
90.33
78.24
67.98
61.23
58.43
58.68
60.35
61.64
61.3
58.82
54.27
47.93
40.05
30.56
19.28
6.0
-9.42
-27.13
-47.39
-70.3
-95.36
-120.68
-142.7
-150.0
-150.0
-144.3
-115.85
-76.8
-33.37
8.09
43.02
69.63
88.52
101.49
110.1
114.97
115.92
112.58
105.32
95.52
85.38
77.24
72.78
72.54
75.89
81.45
87.73
93.66
98.82
103.32
107.48
111.25
113.95
114.22
110.25
100.31
83.13
58.18
25.87
-12.11
-52.45
-90.02
-118.43
-131.43
-125.02
-99.25
-58.64
-11.03
35.09
73.19
100.29
116.8
125.07
127.64
126.09
121.0
112.63
101.51
88.84
76.19
64.98
56.15
49.9
45.83
43.04
40.43
36.86
31.38
23.46
12.96
0.16
-14.45
-30.29
-46.9
-64.02
-81.64
-100.13
-120.2
-142.78
-150.0
-150.0
-150.0
-150.0
-150.0
-150.0
-150.0
-150.0
-144.95
-85.07
-26.3
25.44
67.32
99.54
124.33
144.39
150.0
150.0
150.0
150.0
150.0
150.0
150.0
150.0
150.0
150.0
137.72
118.34
101.94
89.33
80.1
72.89
66.06
58.29
49.03
38.5
27.32
16.04
4.71
-7.3
-21.19
-38.42
-60.21
-86.79
-116.67
-146.11
-150.0
-150.0
-150.0
-150.0
-111.7
-64.74
-17.92
21.97
51.35
70.22
80.93
86.38
88.65
88.5
85.82
80.38
72.34
62.21
50.68
38.29
25.42
12.38
-0.4
-12.29
-22.67
-31.25
-38.31
-44.73
-51.83
-60.8
-72.29
-86.03
-100.92
-115.57
-128.94
-140.92
-150.0
-150.0
-150.0
-150.0
-150.0
-150.0
-150.0
-150.0
-150.0
-147.43
-89.14
-26.78
32.01
81.55
119.37
146.02
150.0
150.0
150.0
150.0
150.0
150.0
150.0
150.0
150.0
150.0
150.0
150.0
150.0
150.0
147.26
136.38
119.94
99.37
77.15
55.79
36.94
20.92
6.63
-7.99
-25.44
-48.02
-77.12
-112.23
-150.0
-150.0
-150.0
-150.0
-150.0
-150.0
-132.91
-83.47
-37.81
-2.02
21.56
33.87
37.57
35.43
29.46
20.94
10.88
0.45
-9.2
-17.32
-23.93
-29.86
-36.18
-43.61
-52.0
-60.43
-67.77
-73.32
-77.29
-80.59
-84.36
-89.17
-94.66
-99.66
-102.81
-103.19
-100.89
-97.06
-93.48
-92.08
-94.29
-100.41
-109.14
-117.38
-120.7
-114.41
-95.27
-62.98
-20.75
25.42
68.69
103.64
127.9
142.37
150.0
150.0
150.0
150.0
150.0
150.0
150.0
139.4
124.25
107.98
92.95
81.11
73.49
70.06
69.68
70.29
69.44
64.95
55.59
41.56
24.43
6.45
-10.43
-25.41
-39.28
-54.13
-72.62
-96.71
-126.65
-150.0
-150.0
-150.0
-150.0
-150.0
-150.0
-143.49
-91.93
-40.92
2.93
36.17
58.65
72.44
80.31
84.59
86.72
87.4
86.99
85.72
83.75
81.19
78.18
74.9
71.78
69.41
68.31
68.76
70.5
72.68
74.03
73.16
69.04
61.34
50.46
37.38
23.18
8.61
-6.28
-22.21
-40.42
-62.12
-87.53
-114.92
-140.17
-150.0
-150.0
-144.87
-110.92
-62.66
-7.68
45.38
89.41
120.51
138.16
144.32
141.99
134.07
122.72
109.45
95.3
81.05
67.25
54.22
42.08
30.81
20.3
10.5
1.3
-7.44
-16.03
-24.99
-34.97
-46.52
-59.84
-74.52
-89.65
-103.99
-116.56
-126.93
-135.57
-143.67
-150.0
-150.0
-150.0
-150.0
-150.0
-150.0
-150.0
-150.0
-122.57
-70.68
-17.09
30.51
66.97
90.88
104.11
110.11
111.92
111.05
107.61
101.18
91.97
81.21
71.01
63.45
59.8
60.04
62.92
66.46
68.6
67.78
63.32
55.44
45.07
33.41
21.48
9.87
-1.39
-12.76
-24.94
-38.8
-55.16
-74.55
-96.63
-119.46
-139.3
-150.0
-149.93
-133.07
-101.24
-58.84
-12.62
30.58
65.88
91.3
107.43
116.09
118.98
116.98
110.29
99.06
84.0
66.72
49.35
34.01
22.18
14.27
9.74
7.53
6.67
6.72
7.79
10.21
13.94
18.05
20.71
19.51
12.23
-2.54
-25.07
-54.63
-89.77
-128.36
-150.0
-150.0
-150.0
-150.0
-150.0
-150.0
-150.0
-95.51
-32.46
25.71
73.06
107.07
128.3
139.24
142.89
141.76
137.5
131.05
122.95
113.74
104.18
95.24
87.98
83.05
80.41
79.17
77.78
74.61
68.52
59.18
47.01
32.71
16.94
0.04
-17.76
-36.16
-54.71
-73.17
-91.9
-112.08
-134.92
-150.0
-150.0
-150.0
-150.0
-150.0
-150.0
-143.08
-93.01
-42.9
-0.17
31.13
50.88
61.79
67.56
71.23
74.43
77.39
79.62
80.55
79.87
77.72
74.5
70.58
66.22
61.45
56.25
50.59
44.51
38.03
31.11
23.61
15.39
6.47
-2.83
-11.99
-20.59
-28.59
-36.71
-46.35
-59.0
-75.31
-94.05
-111.67
-123.05
-123.05
-108.77
-81.0
-44.28
-5.35
29.25
55.25
71.54
79.43
81.2
78.58
72.25
62.35
49.42
35.12
22.13
13.41
11.03
15.32
24.6
35.61
44.63
48.59
45.87
36.46
21.55
2.81
-18.25
-40.63
-63.74
-87.23
-110.94
-134.82
-150.0
-150.0
-150.0
-150.0
-150.0
-150.0
-150.0
-150.0
-150.0
-97.91
-34.83
26.13
78.54
118.31
144.45
150.0
150.0
150.0
150.0
150.0
150.0
149.41
141.12
131.6
121.85
112.63
104.06
95.7
86.91
77.4
67.4
57.61
48.68
40.78
33.34
25.23
15.12
2.0
-14.67
-35.0
-58.68
-84.76
-111.02
-133.55
-147.03
-146.18
-127.85
-92.77
-46.02
4.48
50.58
86.48
110.02
122.3
126.08
123.98
117.5
107.12
93.04
75.98
57.42
39.31
23.35
10.5
0.65
-7.06
-13.9
-21.0
-29.01
-37.94
-47.21
-55.85
-62.8
-67.22
-68.85
-68.22
-66.6
-65.83
-67.8
-74.0
-84.93
-99.56
-114.96
-126.52
-128.89
-117.68
-91.21
-51.66
-4.88
41.41
80.09
106.93
121.61
127.07
127.68
127.18
127.38
128.03
127.58
124.38
117.52
107.21
94.52
80.86
67.51
55.21
44.22
34.31
25.05
16.05
7.13
-1.56
-9.65
-16.75
-22.81
-28.3
-34.29
-42.35
-54.13
-71.01
-93.41
-120.13
-147.83
-150.0
-150.0
-150.0
-150.0
-128.8
-85.88
-42.22
-5.03
21.47
36.75
43.15
44.02
41.91
37.74
31.11
21.34
8.57
-5.71
-19.03
-28.71
-32.91
-31.18
-24.38
-14.16
-2.2
10.24
22.43
33.88
44.04
52.22
57.7
60.01
59.06
54.94
47.58
36.4
20.46
-0.8
-26.39
-52.99
-75.08
-86.54
-82.86
-63.19
-31.03
6.97
43.49
73.06
93.5
105.71
112.17
115.17
115.74
113.74
108.78
101.11
92.1
83.75
77.71
74.35
72.42
69.44
62.74
50.66
33.31
12.57
-8.71
-27.84
-43.36
-55.49
-65.96
-77.3
-92.02
-112.02
-138.11
-150.0
-150.0
-150.0
-150.0
-150.0
-150.0
-150.0
-150.0
-141.38
-86.63
-39.22
-3.81
19.22
32.93
41.8
49.74
58.99
70.11
82.77
96.5
111.01
126.04
141.01
150.0
150.0
150.0
150.0
150.0
150.0
145.24
127.49
106.86
83.8
58.48
31.04
1.73
-29.12
-61.24
-94.4
-128.22
-150.0
-150.0
-150.0
-150.0
-150.0
-150.0
-150.0
-105.52
-53.73
-7.22
29.41
55.03
71.28
80.95
86.33
88.43
87.13
81.97
73.03
61.29
48.42
36.22
25.99
18.14
12.32
7.63
3.08
-2.06
-8.17
-15.26
-23.06
-31.2
-39.25
-46.83
-53.7
-59.92
-65.98
-72.87
-81.86
-93.8
-108.3
-123.0
-133.65
-135.08
-123.07
-96.09
-56.42
-9.65
37.03
77.16
106.82
125.26
134.17
136.25
133.82
128.2
119.81
109.0
96.63
84.34
74.21
68.01
66.42
68.77
73.17
77.25
78.95
77.12
71.63
63.17
52.82
41.57
30.17
18.99
8.06
-2.91
-14.69
-28.43
-45.41
-66.38
-90.59
-115.07
-134.7
-143.34
-135.79
-109.93
-67.85
-15.5
39.07
88.23
126.83
150.0
150.0
150.0
150.0
150.0
146.08
128.86
109.14
88.23
67.41
47.63
29.52
13.38
-0.46
-11.61
-19.7
-24.7
-27.27
-28.84
-31.33
-36.42
-44.81
-55.73
-67.15
-76.53
-81.79
-82.21
-78.65
-73.25
-68.84
-68.15
-72.88
-82.97
-96.09
-107.72
-112.21
-104.68
-82.95
-48.75
-7.31
34.43
70.32
96.83
113.55
122.19
125.0
123.56
118.55
110.35
99.84
88.75
79.19
72.9
70.5
71.35
73.92
76.66
78.61
79.63
80.02
79.83
78.44
74.51
66.6
53.98
37.22
18.07
-1.14
-18.48
-33.22
-46.02
-58.71
-73.62
-92.86
-117.46
-146.63
-150.0
-150.0
-150.0
-150.0
-150.0
-150.0
-109.17
-55.29
-5.85
33.84
62.17
80.42
91.3
97.24
99.74
99.39
96.58
91.95
86.46
81.01
76.0
71.21
65.98
59.76
52.66
45.54
39.72
36.31
35.49
36.19
36.47
34.22
28.15
18.31
6.1
-6.38
-17.33
-25.98
-32.97
-40.15
-50.04
-64.9
-85.77
-111.49
-138.25
-150.0
-150.0
-150.0
-136.08
-93.16
-40.33
13.98
62.09
99.08
123.55
136.82
141.5
140.16
134.65
126.27
116.07
105.07
94.18
83.75
73.46
62.47
49.95
35.62
20.05
4.44
-10.04
-22.88
-34.52
-46.14
-59.09
-74.14
-91.17
-109.32
-127.4
-144.4
-150.0
-150.0
-150.0
-150.0
-150.0
-150.0
-150.0
-150.0
-150.0
-150.0
-150.0
-150.0
-115.71
-55.43
8.91
69.24
118.59
150.0
150.0
150.0
150.0
150.0
150.0
150.0
139.63
129.27
119.45
110.7
103.32
97.21
91.83
86.36
79.77
71.14
59.83
45.75
29.46
12.1
-4.97
-20.47
-33.6
-44.17
-52.52
-59.56
-66.7
-75.7
-88.42
-105.95
-127.54
-149.91
-150.0
-150.0
-150.0
-133.95
-90.32
-38.85
11.85
54.38
84.38
101.09
106.35
103.06
93.99
81.24
66.43
51.02
36.45
23.87
13.82
6.07
-0.16
-5.7
-10.99
-15.91
-19.99
-22.83
-24.49
-25.59
-27.04
-29.55
-33.31
-37.8
-42.08
-45.27
-47.1
-48.11
-49.64
-53.46
-61.19
-73.63
-89.99
-107.52
-121.73
-127.39
-120.12
-98.15
-63.21
-20.27
23.96
63.11
92.95
112.05
121.23
122.46
117.55
107.63
93.44
75.93
56.78
38.4
23.43
14.08
11.29
14.53
21.82
30.34
37.21
40.17
38.13
31.18
20.39
7.3
-6.5
-19.71
-31.4
-41.13
-49.04
-55.96
-63.43
-73.25
-86.69
-103.32
-120.32
-132.77
-135.22
-123.85
-98.36
-62.52
-23.01
13.0
40.32
57.17
65.01
67.12
66.75
65.87
64.9
63.24
60.29
56.12
51.72
48.62
48.18
50.88
56.07
62.0
66.55
67.88
65.07
58.39
49.1
38.99
29.89
23.16
19.39
18.24
18.39
17.65
13.26
2.5
-16.45
-43.47
-75.68
-107.49
-131.55
-140.91
-131.36
-103.15
-61.27
-13.77
30.79
66.03
89.15
100.72
103.25
99.4
90.88
78.38
62.33
43.72
24.56
7.45
-5.26
-12.41
-14.59
-13.84
-12.88
-13.92
-17.98
-24.64
-32.59
-40.46
-47.59
-54.33
-61.8
-71.4
-84.24
-100.91
-121.51
-145.66
-150.0
-150.0
-150.0
-150.0
-150.0
-150.0
-150.0
-141.58
-84.14
-25.09
28.53
71.86
102.96
122.36
131.96
133.9
129.81
120.92
108.5
94.32
80.69
69.97
63.74
62.23
64.23
67.6
70.2
70.62
68.54
64.52
59.34
53.44
46.5
37.59
25.4
8.8
-12.96
-39.86
-70.77
-103.02
-132.21
-150.0
-150.0
-146.94
-116.68
-71.95
-19.73
32.11
77.15
112.01
136.34
150.0
150.0
150.0
150.0
143.57
126.26
105.71
84.99
67.02
53.5
44.42
38.25
32.65
25.43
15.18
1.51
-15.13
-33.89
-53.94
-74.7
-95.83
-117.23
-138.96
-150.0
-150.0
-150.0
-150.0
-150.0
-150.0
-150.0
-150.0
-150.0
-136.49
-79.44
-20.26
35.3
82.59
118.7
142.65
150.0
150.0
150.0
142.11
127.43
110.5
93.35
78.4
67.93
63.28
64.15
68.54
73.28
75.29
72.55
64.74
53.09
39.52
25.85
13.04
1.12
-10.7
-23.6
-38.83
-57.46
-79.84
-105.06
-130.28
-150.0
-150.0
-150.0
-134.19
-98.15
-53.97
-9.4
28.88
57.36
76.17
87.91
95.73
101.66
105.91
107.36
104.65
97.23
85.81
72.19
58.58
46.79
37.51
30.25
23.68
16.35
7.4
-2.99
-13.89
-24.2
-33.34
-41.54
-49.69
-58.82
-69.69
-82.66
-97.8
-114.88
-132.98
-149.95
-150.0
-150.0
-150.0
-127.35
-88.35
-42.39
3.06
41.52
69.62
87.58
98.01
103.89
106.92
107.14
103.68
96.1
85.3
73.48
63.37
56.93
54.61
55.1
56.04
55.01
50.44
42.21
31.58
20.52
10.89
3.66
-1.49
-5.96
-11.72
-20.68
-34.06
-52.0
-73.2
-94.78
-112.42
-121.14
-116.7
-97.2
-64.15
-22.44
21.03
59.56
88.63
106.99
116.2
119.34
119.35
118.09
116.14
113.42
109.92
106.13
103.04
101.77
103.11
107.2
113.13
118.98
121.9
118.66
106.42
83.83
51.61
12.61
-28.91
-68.69
-103.71
-132.89
-150.0
-150.0
-150.0
-150.0
-150.0
-150.0
-150.0
-150.0
-150.0
-150.0
-150.0
-135.71
-80.75
-27.14
19.62
56.09
81.41
96.95
105.24
108.73
109.03
106.67
101.67
94.21
85.07
75.59
67.19
60.76
56.47
53.94
52.52
51.66
51.05
50.55
49.99
49.07
47.26
43.8
37.83
28.46
14.98
-3.03
-25.54
-51.9
-80.47
-108.29
-131.07
-143.67
-141.38
-121.58
-85.17
-36.98
15.39
63.73
101.75
126.83
140.32
146.35
149.84
150.0
150.0
150.0
150.0
150.0
150.0
150.0
150.0
148.98
126.71
104.83
85.7
70.55
59.5
51.8
46.31
41.85
37.4
32.08
25.17
16.0
4.03
-11.11
-29.69
-51.88
-77.57
-105.95
-134.84
-150.0
-150.0
-150.0
-150.0
-123.39
-69.83
-7.69
53.71
106.04
144.07
150.0
150.0
150.0
150.0
150.0
148.49
138.57
129.44
120.78
111.51
100.01
84.69
64.74
40.72
14.54
-11.15
-33.91
-52.47
-67.15
-79.56
-91.75
-105.27
-120.44
-136.29
-150.0
-150.0
-150.0
-150.0
-150.0
-150.0
-150.0
-150.0
-150.0
-150.0
-150.0
-150.0
-150.0
-132.09
-78.14
-18.41
39.2
87.91
123.96
146.92
150.0
150.0
150.0
150.0
138.98
123.6
107.05
91.61
79.09
70.13
64.09
59.61
55.46
51.12
46.77
42.86
39.44
35.82
30.76
23.13
12.61
0.05
-12.79
-24.02
-32.47
-38.35
-43.31
-50.05
-61.47
-79.72
-105.18
-135.72
-150.0
-150.0
-150.0
-150.0
-150.0
-117.5
-62.79
-8.07
38.77
73.06
93.87
103.04
103.69
98.8
90.61
80.75
70.55
61.22
53.7
48.36
44.92
42.62
40.67
38.66
36.76
35.46
35.1
35.43
35.4
33.35
27.63
17.25
2.37
-15.71
-34.96
-53.37
-69.7
-83.97
-97.38
-111.76
-128.57
-147.75
-150.0
-150.0
-150.0
-150.0
-144.38
-98.79
-43.26
13.74
63.91
101.47
124.3
133.68
132.88
125.54
114.62
102.16
89.54
77.91
68.32
61.48
57.52
55.82
55.2
54.4
52.63
49.78
46.35
42.88
39.36
34.89
27.75
16.07
-1.31
-24.22
-51.01
-79.13
-106.05
-130.14
-150.0
-150.0
-150.0
-150.0
-150.0
-150.0
-150.0
-150.0
-150.0
-150.0
-150.0
-129.31
-64.1
-1.18
53.78
97.5
129.1
149.46
150.0
150.0
150.0
150.0
143.09
129.82
115.44
101.41
89.06
79.4
72.97
69.82
69.51
71.18
73.6
75.4
75.31
72.43
66.41
57.46
46.17
33.23
19.14
4.06
-12.3
-30.67
-51.94
-76.51
-103.44
-129.63
-149.88
-150.0
-148.73
-120.15
-74.76
-19.22
37.65
87.57
125.05
148.33
150.0
150.0
150.0
142.41
128.48
112.29
94.64
76.32
58.06
40.33
23.44
7.68
-6.42
-18.11
-26.7
-31.95
-34.5
-35.66
-37.11
-40.05
-44.79
-50.67
-56.5
-61.31
-64.95
-68.3
-73.05
-81.21
-94.4
-113.07
-135.79
-150.0
-150.0
-150.0
-150.0
-138.09
-90.82
-34.66
21.27
68.84
103.25
123.79
132.84
133.99
130.23
123.14
113.17
100.48
85.61
69.73
54.37
40.92
30.25
22.63
17.8
15.18
13.9
12.96
11.25
7.83
2.09
-6.0
-15.83
-26.38
-36.61
-45.88
-54.34
-63.0
-73.67
-88.32
-108.22
-132.83
-150.0
-150.0
-150.0
-150.0
-150.0
-114.84
-58.63
0.01
52.05
91.25
115.36
125.68
125.53
118.52
107.56
94.62
81.16
68.48
57.78
50.01
45.59
44.35
45.77
49.23
54.22
60.28
66.86
73.25
78.55
81.81
82.24
79.33
72.99
63.53
51.53
37.62
22.17
4.92
-15.16
-39.41
-68.31
-100.13
-130.19
-150.0
-150.0
-141.76
-107.14
-59.11
-7.37
38.28
71.1
89.01
94.02
90.18
81.38
70.12
57.6
44.44
31.54
20.33
12.35
8.72
9.67
14.38
21.19
28.08
33.08
34.71
32.15
25.3
14.67
1.02
-14.75
-31.82
-49.48
-67.25
-84.91
-102.82
-121.91
-143.31
-150.0
-150.0
-150.0
-150.0
-150.0
-150.0
-150.0
-135.45
-78.34
-22.79
23.9
58.03
79.6
91.2
96.04
96.5
93.64
87.71
78.96
68.33
57.44
48.06
41.46
37.79
36.04
34.47
31.21
24.98
15.5
3.53
-9.56
-22.36
-33.86
-43.77
-52.38
-60.43
-68.94
-79.18
-92.62
-110.42
-132.58
-150.0
-150.0
-150.0
-150.0
-150.0
-133.69
-81.74
-24.06
30.8
76.22
109.06
129.61
140.27
143.83
142.28
136.5
126.8
113.71
98.48
82.93
68.94
57.71
49.4
43.19
37.77
31.88
24.81
16.53
7.56
-1.46
-10.15
-18.67
-27.67
-38.03
-50.44
-65.21
-82.08
-100.29
-118.33
-133.86
-143.56
-143.61
-130.79
-103.88
-64.8
-18.6
27.78
67.68
96.65
113.49
119.79
118.43
112.14
102.52
90.2
75.61
59.7
44.18
31.05
21.88
17.03
15.56
15.65
15.41
13.61
10.1
5.49
0.57
-4.37
-9.95
-17.58
-29.03
-45.81
-68.62
-96.73
-127.71
-150.0
-150.0
-150.0
-150.0
-150.0
-121.92
-70.81
-15.22
37.9
82.99
116.91
138.87
149.87
150.0
146.09
134.75
119.15
101.02
82.43
65.64
52.44
43.59
38.37
34.89
30.72
23.86
13.42
-0.22
-15.7
-31.39
-46.1
-59.55
-72.27
-85.44
-100.33
-117.85
-138.01
-150.0
-150.0
-150.0
-150.0
-150.0
-150.0
-126.69
-77.98
-24.82
26.49
70.7
104.65
127.55
140.54
145.69
145.06
140.18
132.12
121.95
111.16
101.8
95.86
94.51
97.3
102.2
106.25
106.65
101.84
91.83
78.08
62.61
47.23
32.89
19.59
6.57
-7.33
-23.37
-42.62
-65.56
-91.45
-117.76
-139.97
-150.0
-150.0
-130.49
-95.28
-50.11
-2.84
38.93
70.34
90.16
100.23
103.7
103.27
100.2
94.38
85.34
73.16
59.03
44.98
33.16
25.07
20.99
20.12
20.93
21.62
20.62
16.75
9.33
-1.84
-16.48
-33.94
-53.49
-74.6
-97.19
-121.64
-148.45
-150.0
-150.0
-150.0
-150.0
-150.0
-150.0
-150.0
-150.0
-119.92
-58.33
1.65
55.56
101.49
139.42
150.0
150.0
150.0
150.0
150.0
150.0
150.0
150.0
150.0
150.0
150.0
150.0
149.85
140.01
126.18
109.74
92.74
76.87
62.64
49.23
34.78
17.1
-5.61
-34.14
-67.89
-104.54
-140.01
-150.0
-150.0
-150.0
-150.0
-128.78
-81.45
-31.13
14.38
49.69
72.93
85.37
89.95
89.44
85.47
78.43
68.33
55.79
42.47
30.74
22.84
19.83
21.11
24.64
27.68
27.91
24.12
16.54
6.36
-4.82
-15.76
-25.99
-35.74
-45.82
-57.28
-71.19
-88.32
-108.68
-130.94
-150.0
-150.0
-150.0
-150.0
-127.4
-83.22
-30.79
22.08
68.37
103.81
127.57
141.63
149.14
150.0
150.0
150.0
149.07
141.98
132.52
122.32
113.28
106.63
102.32
98.99
94.5
86.96
75.54
60.88
44.62
28.51
13.52
-0.6
-15.09
-31.53
-51.25
-74.91
-102.56
-133.46
-150.0
-150.0
-150.0
-150.0
-150.0
-150.0
-150.0
-104.02
-52.59
-7.56
27.12
51.19
66.82
76.79
82.91
85.58
84.45
79.46
71.47
62.36
54.35
49.21
47.61
48.84
51.28
52.99
52.46
49.14
43.55
36.93
30.57
25.26
20.94
16.85
11.82
4.62
-5.91
-20.84
-40.91
-65.82
-93.28
-118.56
-135.19
-136.84
-119.9
-85.36
-38.94
10.71
55.08
88.52
109.54
120.11
123.83
123.74
121.32
116.46
108.47
97.12
83.09
67.96
53.59
41.52
32.44
26.11
21.5
17.14
11.6
3.83
-6.52
-19.18
-33.53
-48.8
-64.42
-80.09
-95.67
-111.11
-126.45
-141.82
-150.0
-150.0
-150.0
-150.0
-150.0
-150.0
-134.98
-88.01
-34.09
18.69
63.07
94.91
113.95
122.81
124.99
123.07
118.04
109.89
98.86
86.3
74.59
66.26
62.7
63.45
66.25
68.05
66.27
59.84
49.49
37.3
25.7
16.44
10.01
5.58
1.54
-4.01
-12.68
-25.65
-43.37
-65.19
-88.8
-110.0
-123.3
-123.42
-107.37
-76.06
-34.38
10.18
50.11
80.16
98.59
106.69
107.28
102.98
95.28
84.45
70.31
53.06
33.83
14.68
-2.01
-14.25
-21.17
-23.41
-22.79
-21.58
-21.57
-23.43
-26.62
-29.95
-32.42
-33.85
-35.01
-37.34
-42.29
-50.9
-63.73
-80.8
-101.43
-123.78
-144.33
-150.0
-150.0
-143.04
-108.97
-60.02
-3.14
53.12
101.34
137.28
150.0
150.0
150.0
150.0
150.0
150.0
150.0
137.54
121.02
105.02
91.41
81.24
74.49
70.04
66.16
61.07
53.54
43.27
30.77
16.96
2.6
-12.1
-27.53
-44.44
-63.63
-85.77
-111.47
-141.22
-150.0
-150.0
-150.0
-150.0
-150.0
-150.0
-150.0
-150.0
-150.0
-93.81
-35.07
12.47
46.62
68.83
82.43
90.65
95.33
96.71
94.21
87.47
77.17
65.09
53.61
44.82
39.72
37.85
37.67
37.17
34.72
29.71
22.48
13.93
4.87
-4.4
-14.08
-24.55
-36.08
-48.76
-62.81
-78.69
-96.81
-116.59
-135.49
-148.69
-150.0
-135.15
-102.08
-54.34
0.57
53.5
96.63
125.71
140.6
144.16
140.3
132.47
122.96
113.15
103.97
96.14
90.07
85.54
81.66
77.12
70.75
62.04
51.3
39.5
27.7
16.51
5.8
-5.27
-17.84
-32.75
-50.13
-69.28
-89.0
-108.36
-127.19
-146.34
-150.0
-150.0
-150.0
-150.0
-150.0
-150.0
-150.0
-150.0
-126.72
-63.06
1.67
60.65
109.29
145.71
150.0
150.0
150.0
150.0
150.0
150.0
150.0
145.28
130.81
118.63
109.57
103.23
98.04
91.9
83.04
70.76
55.71
39.46
23.72
9.49
-3.3
-15.7
-29.1
-44.77
-63.61
-85.99
-111.5
-138.37
-150.0
-150.0
-150.0
-150.0
-140.32
-96.41
-46.67
0.54
38.69
64.79
79.32
84.74
83.74
77.98
68.03
54.1
36.85
17.76
-1.1
-17.75
-30.87
-40.15
-46.18
-50.1
-53.1
-56.0
-59.06
-62.04
-64.48
-66.06
-66.92
-67.71
-69.47
-73.31
-80.22
-90.81
-105.11
-122.24
-140.06
-150.0
-150.0
-150.0
-135.6
-98.24
-48.26
7.69
61.71
106.96
139.55
150.0
150.0
150.0
150.0
150.0
147.34
133.22
115.74
96.27
77.19
61.0
49.4
42.55
39.07
36.74
33.45
28.06
20.67
12.27
3.9
-3.93
-11.55
-19.95
-30.33
-43.88
-61.5
-83.71
-110.15
-139.01
-150.0
-150.0
-150.0
-150.0
-150.0
-108.66
-54.25
0.39
47.58
82.62
104.48
114.94
117.03
113.42
105.77
94.84
81.29
66.33
51.93
40.36
33.32
31.19
32.75
35.59
36.98
34.88
28.55
18.68
6.82
-5.29
-16.34
-25.73
-33.55
-40.4
-47.33
-55.78
-67.35
-83.14
-102.71
-123.24
-139.49
-145.06
-134.75
-106.84
-64.35
-14.33
34.6
75.07
103.14
118.63
123.87
121.81
114.68
103.65
89.49
73.39
57.25
43.37
33.61
28.73
28.11
30.05
32.45
33.44
31.85
27.32
20.22
11.42
2.04
-6.81
-14.23
-19.96
-24.53
-29.32
-36.54
-48.66
-67.7
-94.1
-125.85
-150.0
-150.0
-150.0
-150.0
-150.0
-116.75
-64.0
-11.35
33.84
67.66
89.79
102.22
107.36
106.74
100.99
90.49
76.53
61.61
48.99
41.55
40.71
45.87
54.68
63.95
70.76
73.15
70.49
63.2
52.19
38.43
22.5
4.58
-15.42
-37.65
-62.13
-88.43
-115.45
-140.95
-150.0
-150.0
-150.0
-150.0
-117.08
-71.66
-21.82
25.06
63.33
90.51
107.2
115.72
118.33
116.19
109.38
97.89
82.63
65.79
50.23
38.28
30.71
26.45
23.15
18.38
10.76
0.49
-10.89
-21.37
-29.52
-35.16
-39.49
-44.66
-52.93
-66.06
-84.78
-108.46
-134.89
-150.0
-150.0
-150.0
-150.0
-150.0
-112.78
-60.4
-3.95
49.54
94.81
129.29
150.0
150.0
150.0
150.0
150.0
150.0
141.67
123.14
104.12
86.78
72.44
61.14
51.89
43.24
34.13
24.35
14.55
5.77
-1.38
-7.26
-13.37
-21.82
-34.65
-53.07
-77.03
-105.11
-134.47
-150.0
-150.0
-150.0
-150.0
-145.5
-102.18
-50.34
2.25
48.55
84.15
107.94
121.26
126.43
125.32
118.86
107.48
91.8
73.32
54.32
37.29
24.13
15.47
10.58
7.72
4.81
0.25
-6.54
-15.04
-23.97
-31.93
-38.01
-42.1
-44.81
-47.23
-50.55
-55.94
-64.45
-76.69
-92.21
-108.69
-121.85
-126.17
-116.78
-91.62
-52.7
-5.78
41.59
82.8
114.18
135.52
148.94
150.0
150.0
150.0
150.0
144.9
129.99
113.04
96.8
83.32
73.12
65.02
56.84
46.41
32.62
15.92
-1.97
-18.88
-33.25
-44.88
-54.95
-65.43
-78.26
-94.67
-114.91
-138.2
-150.0
-150.0
-150.0
-150.0
-150.0
-150.0
-136.95
-91.07
-44.53
-3.79
27.47
48.83
62.05
69.31
71.75
69.23
61.31
48.48
32.95
18.25
7.97
4.23
6.81
13.27
20.11
24.21
24.05
19.94
13.54
6.78
0.86
-4.27
-9.79
-17.4
-28.67
-44.53
-64.87
-88.37
-112.27
-132.5
-144.17
-142.62
-125.02
-91.61
-46.25
4.42
52.85
92.91
121.39
138.38
146.21
147.8
145.32
139.62
130.8
119.07
105.5
92.05
80.93
73.72
70.63
70.42
70.84
69.52
64.77
56.06
43.99
29.87
15.07
0.56
-13.41
-27.24
-41.77
-57.99
-76.86
-98.83
-123.4
-148.47
-150.0
-150.0
-150.0
-150.0
-126.89
-76.65
-19.96
34.67
80.15
112.59
131.74
140.0
140.67
136.44
128.76
118.22
105.26
90.86
76.75
64.74
56.18
51.24
48.91
47.42
44.88
39.88
31.93
21.5
9.6
-2.6
-14.29
-25.29
-36.02
-47.21
-59.86
-74.94
-93.36
-115.52
-140.61
-150.0
-150.0
-150.0
-150.0
-150.0
-121.81
-70.64
-18.83
25.49
57.48
76.48
85.06
87.04
85.49
81.84
76.17
68.22
58.34
47.71
38.08
30.94
26.95
25.66
25.77
25.65
23.77
19.19
11.59
1.43
-10.28
-22.21
-33.0
-41.65
-47.77
-51.74
-54.85
-59.11
-66.81
-79.65
-97.6
-118.02
-135.56
-143.42
-135.61
-109.4
-66.79
-14.14
39.99
87.66
123.93
147.57
150.0
150.0
150.0
150.0
148.66
136.51
122.62
108.65
96.31
86.75
80.2
75.94
72.6
68.58
62.54
53.77
42.4
29.49
16.65
5.55
-2.72
-8.16
-11.92
-15.97
-22.69
-34.19
-51.91
-75.98
-104.71
-134.09
-150.0
-150.0
-150.0
-139.85
-98.96
-49.16
0.41
41.76
70.39
86.02
91.47
90.7
86.95
81.94
76.03
69.14
61.44
53.6
46.71
41.73
39.2
39.08
40.77
43.38
45.86
47.27
46.89
44.33
39.49
32.46
23.42
12.51
-0.24
-14.88
-31.58
-50.63
-72.36
-96.94
-123.73
-150.0
-150.0
-150.0
-150.0
-150.0
-120.94
-66.73
-7.52
47.28
90.4
118.6
132.83
136.77
134.7
129.88
123.96
117.36
110.11
102.43
94.87
88.1
82.58
78.33
74.95
71.74
67.87
62.6
55.39
46.0
34.55
21.41
7.06
-8.08
-23.79
-40.13
-57.32
-75.83
-96.32
-119.52
-145.77
-150.0
-150.0
-150.0
-150.0
-150.0
-150.0
-150.0
-97.74
-37.51
16.39
57.6
83.89
96.73
99.57
95.81
87.6
75.9
61.22
44.67
28.38
15.03
6.85
4.61
7.16
11.96
16.13
17.68
16.17
12.62
8.57
5.07
2.0
-1.99
-8.74
-19.78
-35.85
-56.8
-81.7
-108.8
-135.2
-150.0
-150.0
-150.0
-140.83
-101.3
-49.97
5.02
55.23
94.5
120.4
134.08
138.78
137.94
133.82
127.18
117.8
105.43
90.52
74.36
58.71
45.09
34.06
25.1
16.83
7.65
-3.49
-16.77
-31.53
-46.79
-61.73
-75.98
-89.56
-102.56
-114.98
-126.82
-138.36
-150.0
-150.0
-150.0
-150.0
-150.0
-150.0
-150.0
-148.92
-101.67
-45.82
10.66
60.22
97.94
122.41
135.08
138.78
136.14
128.84
117.78
103.78
88.26
73.31
61.32
54.13
52.29
54.85
59.72
64.42
66.89
66.17
62.52
57.12
51.29
45.91
40.84
34.94
26.53
13.89
-4.25
-28.44
-58.32
-92.21
-126.73
-150.0
-150.0
-150.0
-150.0
-125.11
-77.01
-25.3
21.25
56.61
78.98
90.38
94.74
95.73
95.29
93.52
89.51
82.54
72.84
61.76
51.16
42.77
37.43
34.97
34.34
34.15
33.21
30.93
27.36
22.98
18.3
13.48
8.19
1.76
-6.56
-17.41
-31.3
-48.6
-69.36
-92.72
-116.13
-135.09
-143.72
-136.68
-111.33
-69.52
-17.6
35.37
80.54
112.01
128.1
130.79
123.99
111.55
96.15
79.21
61.54
44.03
27.9
14.53
5.04
-0.03
-0.85
1.88
7.08
13.52
19.88
24.95
27.71
27.5
24.19
18.0
9.45
-0.93
-12.69
-25.68
-40.17
-56.91
-76.93
-100.91
-128.1
-150.0
-150.0
-150.0
-150.0
-150.0
-113.46
-65.37
-19.09
18.07
42.74
55.64
59.95
59.07
55.11
48.64
39.64
28.72
17.68
9.17
5.69
8.42
16.57
27.57
37.99
44.8
46.39
43.08
36.61
29.16
22.32
16.39
10.47
3.07
-7.16
-21.04
-38.81
-60.05
-83.51
-106.47
-124.65
-132.83
-126.46
-103.68
-66.69
-21.47
24.04
62.74
90.59
107.32
115.46
118.31
118.23
115.83
110.51
101.58
89.27
75.07
61.22
49.87
42.18
37.94
35.83
33.97
30.65
24.8
16.06
4.58
-9.22
-24.86
-41.85
-59.62
-77.7
-95.93
-114.7
-134.94
-150.0
-150.0
-150.0
-150.0
-150.0
-150.0
-150.0
-150.0
-107.84
-44.93
17.56
73.36
118.64
150.0
150.0
150.0
150.0
150.0
150.0
150.0
150.0
150.0
150.0
150.0
132.36
114.82
99.12
85.06
72.03
59.38
46.75
34.03
21.13
7.83
-6.36
-22.06
-39.89
-60.37
-83.91
-110.66
-140.16
-150.0
-150.0
-150.0
-150.0
-150.0
-150.0
-131.0
-72.83
-14.09
37.2
76.04
101.16
114.24
118.33
116.21
109.62
99.29
85.64
69.43
52.1
35.56
21.59
11.18
4.09
-1.01
-6.05
-12.79
-22.13
-33.8
-46.58
-58.85
-69.28
-77.23
-82.9
-87.04
-90.69
-94.93
-100.83
-109.14
-119.78
-131.2
-140.05
-141.52
-130.78
-104.95
-64.68
-14.47
38.55
87.02
125.73
150.0
150.0
150.0
150.0
150.0
150.0
150.0
150.0
141.95
120.41
97.83
76.15
56.45
38.94
23.14
8.5
-5.09
-16.96
-25.86
-30.58
-30.66
-26.88
-21.22
-16.32
-14.65
-17.94
-27.02
-41.83
-61.49
-83.92
-105.56
-121.37
-125.91
-115.21
-88.65
-49.81
-5.63
35.87
68.34
89.01
98.82
100.99
99.02
95.07
89.59
82.02
71.86
59.44
46.01
33.18
22.27
13.87
7.77
3.33
-0.17
-3.24
-6.19
-9.13
-12.22
-15.71
-19.97
-25.47
-32.71
-42.12
-54.1
-69.02
-87.14
-108.36
-131.63
-150.0
-150.0
-150.0
-150.0
-139.48
-94.33
-38.85
18.03
67.65
104.34
126.68
136.74
138.23
134.41
127.11
116.93
104.23
90.03
76.35
65.62
59.84
59.71
64.33
71.42
78.01
81.27
79.27
71.33
58.01
40.7
21.07
0.53
-20.05
-40.41
-60.81
-81.93
-104.75
-130.13
-150.0
-150.0
-150.0
-150.0
-150.0
-150.0
-150.0
-137.12
-81.81
-29.1
13.99
44.3
62.64
72.19
76.3
76.96
74.49
68.42
58.67
46.32
33.58
22.97
16.31
14.09
15.3
18.03
20.29
20.73
19.06
15.87
12.06
8.28
4.47
0.0
-6.1
-14.68
-26.25
-40.93
-58.36
-77.42
-95.73
-109.5
-114.08
-105.45
-82.04
-45.95
-2.83
39.92
75.75
101.03
115.72
122.35
124.16
123.35
120.58
115.42
107.43
97.02
85.51
74.64
65.86
59.69
55.55
52.04
47.34
39.89
28.82
14.27
-2.77
-20.84
-38.71
-55.83
-72.5
-89.6
-108.28
-129.5
-150.0
-150.0
-150.0
-150.0
-150.0
-150.0
-150.0
-150.0
-149.04
-94.96
-41.28
5.78
42.81
69.4
87.16
98.22
104.17
105.76
103.31
97.42
89.36
80.88
73.64
68.52
65.19
62.35
58.32
51.99
43.33
33.51
24.36
17.44
13.3
11.07
8.69
3.56
-6.75
-23.98
-48.73
-80.11
-115.29
-149.47
-150.0
-150.0
-150.0
-150.0
-111.66
-53.9
8.63
68.11
118.56
150.0
150.0
150.0
150.0
150.0
150.0
150.0
150.0
146.99
125.36
103.5
83.25
65.83
51.52
39.59
28.74
17.66
5.59
-7.45
-20.78
-33.52
-44.99
-55.05
-64.2
-73.42
-84.01
-97.33
-114.34
-135.14
-150.0
-150.0
-150.0
-150.0
-150.0
-150.0
-106.86
-53.37
-0.81
43.62
76.03
96.31
106.98
111.31
111.67
108.98
103.33
94.98
85.06
75.5
68.18
63.91
61.93
60.05
55.67
46.78
32.84
14.89
-5.04
-24.8
-43.02
-59.47
-74.98
-90.92
-108.59
-128.76
-150.0
-150.0
-150.0
-150.0
-150.0
-150.0
-150.0
-150.0
-140.2
-87.53
-32.18
19.93
64.26
98.5
122.57
137.87
146.28
149.28
147.6
141.53
131.58
118.99
105.85
94.51
86.65
82.5
80.77
79.23
75.82
69.55
60.91
51.43
42.8
36.0
30.81
25.99
19.81
10.66
-2.49
-19.89
-40.78
-63.11
-83.42
-97.06
-99.24
-86.67
-59.17
-20.32
23.37
64.55
97.49
119.75
132.23
137.8
139.46
138.88
136.1
130.28
120.76
107.86
92.97
77.99
64.59
53.67
45.08
37.94
31.09
23.66
15.4
6.74
-1.53
-8.76
-14.88
-20.55
-27.02
-35.69
-47.77
-64.07
-84.98
-110.22
-138.39
-150.0
-150.0
-150.0
-150.0
-150.0
-127.64
-73.63
-17.03
33.52
72.11
96.91
109.56
113.57
112.3
107.82
100.88
91.48
79.79
66.5
52.79
39.88
28.63
19.35
11.85
5.62
0.07
-5.21
-10.42
-15.48
-20.22
-24.54
-28.61
-32.88
-38.04
-44.85
-54.0
-66.2
-82.04
-101.69
-124.19
-146.79
-150.0
-150.0
-150.0
-137.17
-94.86
-42.89
10.34
57.04
92.4
115.44
128.14
133.57
134.12
130.59
122.66
109.98
93.26
74.67
57.36
44.25
36.97
35.24
36.99
39.32
39.46
35.83
28.24
17.7
5.67
-6.67
-18.84
-31.13
-44.38
-59.58
-77.65
-99.23
-124.34
-150.0
-150.0
-150.0
-150.0
-150.0
-150.0
-150.0
-105.27
-46.93
9.49
56.97
91.82
114.15
126.79
133.22
135.71
134.69
129.27
118.74
103.75
86.64
70.63
58.28
50.36
45.57
41.36
35.24
25.93
13.65
-0.24
-14.18
-27.17
-39.15
-50.8
-63.09
-76.92
-93.04
-112.06
-134.41
-150.0
-150.0
-150.0
-150.0
-150.0
-150.0
-150.0
-131.14
-71.0
-8.92
47.5
92.84
124.75
143.74
150.0
150.0
147.73
139.16
127.97
115.0
101.23
87.68
75.28
64.45
55.07
46.67
38.69
30.69
22.31
13.22
3.01
-8.71
-22.16
-37.19
-53.29
-69.78
-86.07
-101.98
-117.81
-134.25
-150.0
-150.0
-150.0
-150.0
-150.0
-150.0
-150.0
-116.61
-63.3
-6.63
46.03
88.88
119.0
136.61
144.11
144.62
140.61
133.4
123.35
110.67
96.25
81.84
69.65
61.4
57.61
57.31
58.51
58.98
57.04
52.02
44.2
34.4
23.38
11.58
-1.01
-14.71
-29.97
-47.34
-67.52
-91.1
-118.04
-146.85
-150.0
-150.0
-150.0
-150.0
-150.0
-119.24
-65.43
-9.65
41.04
81.96
111.36
129.88
139.41
141.87
138.72
130.95
119.66
106.47
93.71
83.86
78.74
78.7
82.35
87.11
90.27
90.08
86.24
79.83
72.39
65.09
58.12
50.77
41.84
30.28
15.48
-2.79
-24.34
-48.25
-72.28
-92.47
-103.59
-100.71
-81.25
-46.62
-2.4
43.33
82.75
110.79
126.34
131.54
129.85
124.2
115.87
104.81
90.64
73.66
55.23
37.44
22.31
11.01
3.49
-1.5
-5.78
-11.09
-18.48
-28.04
-39.01
-50.22
-60.65
-69.72
-77.57
-84.79
-92.29
-101.11
-112.29
-126.72
-144.47
-150.0
-150.0
-150.0
-150.0
-150.0
-139.4
-88.34
-28.93
30.34
81.8
120.71
146.04
150.0
150.0
150.0
150.0
150.0
141.18
127.4
112.89
100.21
91.65
88.2
89.03
91.78
93.48
91.75
85.64
75.78
63.77
51.23
38.94
26.43
12.31
-5.1
-27.08
-54.21
-86.14
-121.45
-150.0
-150.0
-150.0
-150.0
-150.0
-150.0
-130.13
-78.65
-29.67
10.0
37.4
53.35
61.01
63.74
63.58
60.92
55.2
46.03
34.07
21.0
9.03
0.05
-5.15
-6.99
-6.88
-6.51
-7.26
-9.84
-14.2
-19.83
-26.11
-32.64
-39.35
-46.59
-54.97
-65.24
-78.2
-94.28
-113.13
-133.06
-150.0
-150.0
-150.0
-141.85
-106.62
-56.66
1.82
60.61
111.8
149.95
150.0
150.0
150.0
150.0
150.0
150.0
134.04
115.85
97.11
79.66
65.28
54.84
47.77
42.32
36.23
27.71
16.06
1.86
-13.53
-28.66
-42.71
-55.68
-68.38
-81.93
-97.46
-115.77
-137.11
-150.0
-150.0
-150.0
-150.0
-150.0
-150.0
-150.0
-120.43
-64.85
-9.85
37.8
74.34
99.48
115.44
125.22
131.03
133.74
133.1
128.65
120.52
109.73
97.98
87.01
78.02
71.3
66.31
62.01
57.34
51.65
44.9
37.57
30.26
23.32
16.58
9.3
0.42
-11.16
-26.4
-46.02
-70.25
-98.28
-127.59
-150.0
-150.0
-150.0
-150.0
-114.88
-65.05
-11.25
37.41
74.47
97.7
108.74
111.11
108.11
101.65
92.27
80.11
65.96
51.5
38.88
29.79
24.72
22.76
22.06
20.55
16.7
9.98
0.86
-9.47
-19.69
-28.8
-36.48
-43.16
-49.9
-58.09
-69.26
-84.69
-104.93
-129.17
-150.0
-150.0
-150.0
-150.0
-150.0
-124.19
-72.0
-15.62
36.2
76.86
103.52
116.96
120.22
116.78
109.3
99.33
87.9
76.26
66.19
59.6
57.63
59.98
64.68
68.7
69.1
64.15
53.87
39.92
24.67
10.17
-2.56
-13.72
-24.25
-35.31
-47.94
-62.92
-80.74
-101.11
-122.25
-140.45
-150.0
-147.4
-128.31
-94.42
-50.85
-5.02
36.03
67.91
89.61
102.57
108.96
110.13
106.28
97.13
83.03
65.64
47.77
32.42
21.67
15.91
13.72
12.55
9.82
4.0
-4.76
-14.81
-23.83
-30.09
-33.35
-35.11
-38.0
-44.69
-56.93
-75.12
-98.23
-124.04
-149.29
-150.0
-150.0
-150.0
-150.0
-121.2
-71.35
-14.97
40.26
87.82
124.01
148.28
150.0
150.0
150.0
150.0
146.36
127.51
105.35
83.23
64.77
52.51
46.94
46.39
47.83
48.14
45.28
38.77
29.44
18.58
7.04
-5.22
-19.04
-35.6
-55.87
-80.18
-107.91
-137.19
-150.0
-150.0
-150.0
-150.0
-150.0
-121.92
-71.09
-17.99
29.97
67.78
93.8
109.08
115.86
116.05
110.57
99.7
83.96
64.94
45.34
28.37
16.64
11.2
11.16
14.08
16.89
17.01
13.17
5.56
-4.68
-16.18
-28.09
-40.28
-53.23
-67.58
-83.86
-102.32
-122.66
-143.8
-150.0
-150.0
-150.0
-150.0
-145.37
-104.72
-54.64
-2.31
45.37
83.77
111.44
129.51
140.07
144.75
144.13
138.18
127.38
113.41
99.13
87.54
80.55
78.0
77.62
76.07
70.35
59.13
43.32
25.63
9.23
-3.59
-12.43
-18.8
-25.47
-35.39
-50.69
-72.09
-98.5
-126.89
-150.0
-150.0
-150.0
-150.0
-125.17
-80.18
-29.78
18.02
57.15
85.03
102.48
112.16
116.73
117.65
115.1
108.93
99.59
88.59
78.02
69.73
64.39
61.22
58.35
53.8
46.36
36.24
24.86
14.19
5.75
-0.13
-4.59
-9.72
-17.82
-30.61
-48.82
-72.07
-98.8
-126.13
-149.74
-150.0
-150.0
-147.55
-113.46
-66.88
-15.2
33.7
74.08
103.82
124.04
137.45
146.27
150.0
150.0
144.84
132.69
116.2
98.34
82.27
70.14
62.43
58.0
54.84
50.99
45.35
38.0
29.93
22.39
16.23
11.43
7.08
1.69
-6.39
-18.69
-36.54
-60.79
-91.3
-126.01
-150.0
-150.0
-150.0
-150.0
-150.0
-123.12
-71.97
-22.56
17.66
45.27
60.98
67.95
69.62
68.11
63.94
56.84
46.89
35.25
24.06
15.72
11.88
12.79
17.18
22.76
27.15
28.7
26.98
22.66
17.0
11.05
5.22
-0.86
-8.07
-17.26
-29.06
-43.79
-61.59
-82.29
-104.87
-126.79
-143.69
-150.0
-141.51
-116.0
-76.16
-28.58
18.23
56.78
82.97
96.93
101.85
101.78
99.56
95.92
89.98
80.6
67.62
52.43
37.48
25.32
17.43
13.7
12.53
11.57
8.64
2.58
-6.58
-17.85
-29.95
-41.89
-53.29
-64.29
-75.31
-86.83
-99.45
-113.97
-131.14
-150.0
-150.0
-150.0
-150.0
-150.0
-150.0
-133.6
-83.21
-29.4
19.85
59.18
87.02
104.96
115.87
122.08
124.48
122.83
116.83
107.1
95.51
84.64
76.89
73.47
73.91
76.33
78.09
76.85
71.32
61.69
49.31
35.94
22.99
10.88
-0.91
-13.54
-28.27
-46.21
-68.14
-94.32
-123.9
-150.0
-150.0
-150.0
-150.0
-150.0
-144.81
-97.29
-45.96
1.2
39.02
66.33
85.26
99.39
111.77
123.78
134.98
143.92
149.03
149.34
144.69
135.7
123.6
109.86
95.9
82.83
71.24
61.12
51.96
43.02
33.44
22.53
9.83
-4.8
-21.24
-39.17
-58.19
-78.05
-98.71
-120.15
-141.88
-150.0
-150.0
-150.0
-150.0
-150.0
-112.58
-61.32
-6.45
43.9
83.6
110.13
124.54
129.97
129.74
126.08
119.76
110.84
99.56
86.88
74.34
63.55
55.58
50.72
48.59
48.35
48.94
49.11
47.55
42.99
34.59
22.17
6.33
-11.66
-30.35
-48.5
-65.4
-81.01
-95.85
-110.74
-126.31
-142.31
-150.0
-150.0
-150.0
-150.0
-121.45
-77.49
-25.98
24.73
66.81
95.32
109.35
111.38
105.52
95.56
84.03
72.17
60.62
49.98
40.95
34.02
29.15
25.84
23.37
21.33
19.73
18.85
18.79
19.11
18.73
16.26
10.6
1.41
-10.64
-24.1
-37.19
-48.49
-57.46
-64.73
-71.88
-80.66
-91.75
-103.77
-112.94
-113.98
-102.12
-75.35
-35.74
10.85
56.75
95.21
122.58
138.82
146.42
148.43
146.82
141.98
133.36
120.61
104.43
86.6
69.39
54.64
43.12
34.39
27.22
20.14
12.05
2.47
-8.49
-20.33
-32.61
-45.08
-57.84
-71.28
-85.97
-102.59
-121.88
-144.41
-150.0
-150.0
-150.0
-150.0
-150.0
-150.0
-150.0
-150.0
-107.43
-46.39
8.53
51.13
79.21
94.34
100.15
100.38
97.34
91.74
83.4
72.38
59.76
47.55
38.02
32.66
31.47
33.0
35.0
35.41
33.22
28.79
23.47
18.8
15.69
14.05
12.89
10.99
7.23
0.82
-8.85
-22.18
-38.88
-57.09
-72.92
-80.96
-76.09
-55.79
-21.82
19.9
61.26
94.93
116.81
126.76
127.51
122.6
114.47
103.95
90.82
75.0
57.3
39.49
23.46
10.32
-0.16
-9.44
-19.52
-31.97
-47.3
-64.71
-82.45
-98.5
-111.36
-120.39
-126.07
-129.71
-133.14
-138.34
-147.08
-150.0
-150.0
-150.0
-150.0
-150.0
-150.0
-150.0
-150.0
-138.75
-81.98
-22.74
32.09
77.52
111.3
133.7
146.63
150.0
150.0
148.03
139.27
126.77
111.86
96.6
83.25
73.44
67.4
63.99
61.2
57.13
50.74
42.27
32.84
23.79
15.94
9.09
2.24
-6.11
-17.44
-32.84
-52.71
-76.4
-101.67
-124.4
-139.09
-140.3
-124.64
-92.53
-48.63
-0.54
43.76
78.52
101.68
114.63
120.59
122.7
122.75
121.0
116.84
109.76
99.86
87.98
75.32
62.98
51.64
41.39
31.95
22.92
14.16
5.83
-1.66
-7.99
-13.31
-18.33
-24.25
-32.46
-44.05
-59.68
-79.49
-103.15
-129.67
-150.0
-150.0
-150.0
-150.0
-150.0
-150.0
-108.61
-51.82
5.97
57.12
96.74
123.44
138.83
145.87
147.27
144.73
138.87
130.06
119.05
107.2
96.15
87.01
79.82
73.41
65.95
55.8
42.32
26.26
9.44
-5.96
-18.33
-27.36
-34.11
-40.71
-49.75
-63.47
-83.13
-108.3
-136.36
-150.0
-150.0
-150.0
-150.0
-137.92
-92.77
-41.91
6.72
47.15
76.78
96.05
106.94
111.25
109.68
102.02
88.21
69.33
47.98
27.68
11.81
2.43
-0.36
1.68
5.74
8.93
9.28
6.12
-0.01
-7.95
-16.55
-25.13
-33.61
-42.27
-51.43
-61.27
-71.82
-82.88
-93.77
-102.89
-107.42
-103.68
-88.2
-59.43
-18.98
28.18
75.0
114.64
142.67
150.0
150.0
150.0
150.0
144.58
132.53
117.47
99.72
80.7
62.74
48.2
38.49
33.53
31.83
31.1
29.24
25.07
18.67
11.11
3.71
-2.67
-8.1
-13.54
-20.34
-29.72
-42.48
-59.01
-79.28
-102.57
-126.85
-148.28
-150.0
-150.0
-143.96
-110.56
-66.05
-18.36
24.49
57.18
78.44
90.41
96.63
99.82
100.8
98.69
92.25
81.27
67.18
52.75
41.06
34.33
33.08
36.04
40.75
44.52
45.47
43.03
37.85
31.15
23.91
16.33
7.82
-2.56
-15.56
-31.48
-50.36
-72.03
-95.9
-120.3
-141.72
-150.0
-150.0
-135.63
-99.4
-50.32
3.25
52.29
90.12
114.29
126.43
130.29
129.32
125.04
116.93
103.73
85.11
62.6
39.46
19.4
5.18
-2.48
-4.84
-4.35
-3.56
-4.13
-6.65
-11.0
-16.93
-24.48
-34.11
-46.4
-61.76
-80.17
-101.22
-124.22
-148.31
-150.0
-150.0
-150.0
-150.0
-150.0
-150.0
-150.0
-102.16
-49.01
1.01
42.29
72.42
92.07
103.57
109.2
110.08
106.27
97.72
85.3
71.15
58.25
49.25
45.41
46.12
49.18
51.85
51.92
48.57
42.59
35.78
30.07
26.48
24.62
22.79
18.58
9.58
-5.96
-28.77
-58.21
-91.87
-125.19
-150.0
-150.0
-150.0
-135.34
-94.13
-44.02
5.92
48.03
78.19
96.29
105.08
108.15
108.28
106.82
104.1
100.13
95.23
90.04
85.22
81.07
77.3
73.24
68.08
61.25
52.6
42.38
31.1
19.24
7.12
-5.35
-18.49
-32.75
-48.48
-65.73
-84.42
-104.48
-125.88
-148.36
-150.0
-150.0
-150.0
-150.0
-150.0
-147.83
-97.7
-40.13
16.15
63.63
98.16
119.52
130.38
134.39
134.5
132.25
128.03
121.89
114.3
106.3
99.21
94.13
91.39
90.35
89.54
87.1
81.3
71.21
56.97
39.81
21.55
3.92
-12.06
-26.27
-39.43
-52.68
-67.25
-84.19
-104.15
-126.91
-150.0
-150.0
-150.0
-150.0
-150.0
-131.52
-84.62
-33.44
13.5
49.89
73.27
84.95
88.34
86.85
82.45
75.49
65.47
52.23
36.67
20.71
6.62
-3.82
-9.98
-12.56
-13.11
-13.42
-14.81
-17.8
-22.14
-27.28
-32.85
-38.94
-46.16
-55.25
-66.75
-80.74
-96.95
-114.84
-133.46
-150.0
-150.0
-150.0
-150.0
-141.41
-104.37
-56.45
-4.67
43.19
81.18
106.79
121.14
127.53
129.54
129.38
127.5
123.21
115.76
105.31
93.16
81.27
71.5
64.74
60.64
57.78
54.33
48.88
41.01
31.4
21.36
12.12
4.2
-2.88
-10.45
-20.17
-33.56
-51.74
-75.15
-103.28
-134.15
-150.0
-150.0
-150.0
-150.0
-150.0
-116.85
-61.12
-3.47
47.75
86.95
112.28
125.11
128.49
125.51
118.33
108.17
95.87
82.55
69.75
59.21
52.3
49.47
50.1
52.77
55.72
57.3
56.26
51.9
44.07
33.11
19.69
4.76
-10.73
-25.98
-40.57
-54.56
-68.54
-83.4
-99.75
-117.04
-132.83
-142.71
-141.32
-124.35
-90.72
-43.82
9.06
58.9
98.01
122.39
132.39
131.6
124.65
115.21
105.16
94.9
84.38
74.01
64.82
58.0
54.12
52.61
51.86
49.82
44.9
36.63
25.82
14.14
3.34
-5.55
-12.71
-19.44
-27.63
-39.14
-55.22
-76.29
-101.87
-130.63
-150.0
-150.0
-150.0
-150.0
-150.0
-150.0
-123.37
-69.83
-16.39
29.19
62.29
82.26
91.69
94.46
93.83
91.33
87.03
80.48
71.79
62.08
53.02
46.08
41.76
39.39
37.62
35.18
31.47
26.74
21.63
16.54
11.15
4.21
-5.96
-20.86
-41.24
-66.95
-97.02
-129.74
-150.0
-150.0
-150.0
-150.0
-150.0
-150.0
-126.4
-69.48
-12.0
38.03
75.69
99.93
112.85
117.82
117.72
113.99
106.86
96.22
82.53
67.29
52.7
40.89
33.16
29.46
28.5
28.27
26.7
22.37
14.89
4.82
-6.73
-18.65
-30.28
-41.56
-52.93
-64.92
-78.03
-92.67
-109.05
-126.87
-144.7
-150.0
-150.0
-150.0
-140.16
-102.72
-53.2
1.01
51.5
91.6
118.3
132.5
137.68
137.75
135.37
131.36
125.33
116.73
105.9
94.24
83.72
76.03
71.77
70.25
69.77
68.33
64.32
57.11
47.09
35.34
23.06
11.07
-0.44
-11.82
-23.72
-36.77
-51.59
-68.8
-88.84
-111.42
-134.77
-150.0
-150.0
-150.0
-142.36
-102.84
-50.03
7.57
60.55
101.54
127.29
138.83
140.04
135.33
127.79
118.5
107.07
92.89
76.12
58.16
41.06
26.63
15.62
7.51
0.92
-5.59
-12.92
-21.15
-29.75
-38.06
-45.66
-52.36
-58.06
-62.5
-65.39
-66.79
-67.57
-69.69
-75.51
-86.45
-101.54
-116.66
-125.49
-121.78
-102.13
-67.79
-24.38
20.33
59.44
89.3
109.83
123.17
131.5
135.47
134.14
126.19
111.57
92.31
72.17
55.21
44.2
39.61
39.57
40.93
40.69
37.24
30.81
22.96
15.47
9.17
3.49
-3.31
-13.19
-27.31
-45.58
-66.95
-90.0
-113.43
-135.81
-150.0
-150.0
-150.0
-150.0
-125.42
-83.22
-33.6
17.12
64.17
105.29
140.27
150.0
150.0
150.0
150.0
150.0
150.0
150.0
150.0
150.0
150.0
150.0
150.0
150.0
150.0
150.0
150.0
150.0
150.0
150.0
150.0
150.0
150.0
142.28
111.82
74.91
36.16
-0.85
-34.1
-62.48
-84.78
-99.29
-104.55
-100.92
-91.33
-81.12
-76.24
-80.94
-96.54
-121.76
-150.0
-150.0
-150.0
-150.0
-150.0
-150.0
-150.0
-150.0
-150.0
-150.0
-150.0
-150.0
-150.0
-98.48
-50.83
-16.23
3.69
8.99
1.85
-13.51
-32.07
-49.49
-63.39
-73.57
-81.59
-90.2
-102.29
-120.06
-144.08
-150.0
-150.0
-150.0
-150.0
-150.0
-150.0
-139.49
-84.52
-28.65
21.25
60.95
89.14
106.77
115.79
118.01
114.7
106.74
95.23
81.97
69.47
60.31
56.33
57.71
62.8
68.71
72.41
71.8
66.32
56.88
45.24
33.1
21.4
10.09
-1.66
-15.09
-31.47
-51.63
-75.58
-101.96
-127.66
-148.01
-150.0
-150.0
-129.08
-90.47
-41.23
11.52
60.68
101.1
130.54
149.34
150.0
150.0
150.0
150.0
141.45
126.8
110.71
95.35
82.54
73.04
66.26
60.62
54.26
45.88
35.27
23.27
11.34
0.77
-7.95
-15.37
-22.94
-32.55
-45.93
-64.21
-87.41
-114.17
-141.56
-150.0
-150.0
-150.0
-150.0
-134.13
-87.93
-33.22
23.19
75.02
117.98
150.0
150.0
150.0
150.0
150.0
150.0
150.0
150.0
148.86
131.91
117.55
106.93
99.57
93.74
87.35
78.89
68.0
55.37
42.13
29.06
16.11
2.41
-13.25
-31.8
-53.6
-78.44
-105.64
-133.92
-150.0
-150.0
-150.0
-150.0
-150.0
-136.56
-85.74
-29.45
23.78
67.26
97.96
116.49
125.68
128.61
127.18
121.87
112.49
99.25
83.4
67.12
52.89
42.5
36.43
33.77
32.56
30.59
26.01
18.01
6.75
-6.87
-21.83
-37.41
-53.4
-69.98
-87.45
-106.06
-125.99
-147.26
-150.0
-150.0
-150.0
-150.0
-150.0
-150.0
-150.0
-110.51
-53.38
4.29
55.91
97.15
126.31
143.82
150.0
149.36
139.81
123.52
102.33
79.1
57.42
40.62
30.62
27.14
27.85
29.27
28.19
22.82
13.26
1.15
-11.31
-22.38
-31.43
-39.04
-46.58
-55.61
-67.43
-82.65
-100.82
-120.0
-136.59
-145.77
-142.7
-124.32
-90.9
-46.51
1.92
46.87
82.56
106.52
119.65
124.88
125.39
123.14
118.59
111.27
100.82
87.86
74.02
61.46
51.93
45.96
42.73
40.56
37.83
33.81
29.01
24.71
22.05
21.15
20.81
18.87
13.04
1.88
-14.92
-36.46
-60.93
-85.71
-107.22
-120.94
-122.18
-107.49
-76.45
-32.57
17.16
64.5
102.53
127.92
141.22
145.61
144.68
140.74
134.23
124.51
111.24
95.18
78.32
63.03
51.02
42.62
36.76
31.54
25.06
16.23
5.03
-7.5
-19.88
-30.82
-39.66
-46.69
-52.89
-59.72
-68.68
-81.13
-98.0
-119.32
-143.56
-150.0
-150.0
-150.0
-150.0
-147.9
-103.04
-50.32
1.75
46.01
78.57
99.22
110.18
114.18
113.0
107.13
96.41
81.22
63.13
44.87
29.43
19.03
14.26
13.92
15.63
16.78
15.48
11.14
4.39
-3.44
-11.12
-18.03
-24.41
-31.13
-39.22
-49.61
-62.91
-79.38
-98.68
-119.23
-137.82
-149.7
-149.79
-134.61
-104.15
-62.58
-17.11
24.47
56.44
76.88
87.28
90.95
90.84
88.29
83.0
74.21
61.94
47.65
33.93
23.37
17.47
15.9
16.72
17.37
15.83
11.54
5.41
-0.87
-5.93
-9.66
-13.41
-19.44
-29.95
-46.26
-68.47
-95.42
-124.88
-150.0
-150.0
-150.0
-150.0
-150.0
-134.45
-87.0
-34.73
14.56
54.87
83.53
101.21
110.63
114.79
115.68
113.91
109.42
102.45
94.15
86.53
81.66
80.66
83.03
86.8
89.35
88.5
83.47
75.06
65.11
55.38
46.67
38.41
29.01
16.73
0.39
-20.18
-44.19
-69.96
-94.76
-114.85
-125.75
-123.35
-105.56
-73.68
-32.66
10.22
47.8
75.4
92.06
99.87
102.14
101.42
98.5
92.73
83.24
70.23
55.33
41.08
29.93
23.3
21.16
22.33
25.02
27.51
28.53
27.45
24.09
18.59
11.08
1.6
-10.11
-24.5
-42.1
-63.34
-88.52
-117.57
-149.72
-150.0
-150.0
-150.0
-150.0
-150.0
-150.0
-150.0
-100.88
-38.86
17.54
62.59
94.44
114.53
125.87
131.12
131.49
126.96
117.27
103.15
86.79
71.34
59.73
53.33
51.5
51.93
51.81
49.06
42.97
34.26
24.37
14.56
5.34
-3.73
-13.74
-25.86
-40.98
-59.44
-80.99
-104.64
-128.34
-148.74
-150.0
-150.0
-147.79
-118.55
-78.12
-33.01
9.5
43.71
67.12
80.61
87.12
89.79
90.34
88.68
83.66
74.54
62.08
48.77
38.1
33.15
35.3
43.57
55.05
65.93
72.84
73.83
68.6
58.14
43.92
27.27
9.01
-10.41
-30.66
-51.37
-72.06
-92.17
-110.85
-126.63
-137.06
-138.9
-129.06
-106.04
-71.2
-28.95
14.27
52.12
80.36
97.91
106.51
109.23
108.95
107.23
104.43
100.16
94.14
86.61
78.28
69.99
62.29
55.21
48.28
40.9
32.65
23.72
14.83
6.9
0.43
-4.97
-10.65
-18.61
-30.64
-47.77
-69.89
-95.95
-124.2
-150.0
-150.0
-150.0
-150.0
-150.0
-150.0
-113.54
-55.69
5.16
60.14
102.63
130.06
144.0
148.72
148.92
148.01
147.37
146.72
145.1
141.76
136.58
129.92
122.21
113.6
103.82
92.38
78.87
63.21
45.8
27.42
9.03
-8.51
-24.61
-39.07
-51.96
-63.69
-74.87
-86.52
-100.02
-116.83
-137.69
-150.0
-150.0
-150.0
-150.0
-150.0
-150.0
-114.12
-59.95
-6.34
39.98
75.29
98.88
111.91
116.04
112.63
102.9
88.52
72.17
57.25
47.01
43.32
45.91
52.37
58.97
62.05
59.18
49.83
35.23
17.65
-0.54
-17.59
-32.59
-45.4
-56.35
-65.98
-75.03
-84.45
-95.23
-107.8
-121.22
-132.5
-136.95
-129.44
-106.66
-69.03
-21.33
28.58
72.39
104.28
122.47
128.97
127.75
122.49
115.16
105.97
94.38
80.2
64.21
47.81
32.34
18.44
5.98
-5.7
-17.15
-28.47
-39.24
-48.74
-56.29
-61.7
-65.42
-68.61
-72.88
-79.84
-90.62
-105.63
-124.53
-146.15
-150.0
-150.0
-150.0
-150.0
-150.0
-150.0
-110.29
-52.1
8.09
61.69
102.51
128.31
140.67
143.36
140.34
134.29
126.27
116.53
105.47
94.28
84.75
78.46
75.92
76.11
76.86
75.7
70.83
61.65
48.79
33.57
17.32
0.87
-15.5
-32.0
-49.01
-66.88
-85.97
-106.67
-129.34
-150.0
-150.0
-150.0
-150.0
-150.0
-150.0
-150.0
-118.12
-64.71
-13.03
30.23
61.49
80.44
88.87
89.19
83.39
72.95
59.41
44.92
32.23
23.99
21.83
25.59
33.32
41.89
48.15
49.98
46.87
39.96
31.29
22.9
15.94
10.35
5.0
-1.72
-11.25
-24.41
-41.32
-61.41
-83.19
-104.04
-120.02
-126.39
-119.02
-96.14
-59.65
-15.12
29.78
67.84
94.56
109.11
113.52
110.93
103.81
93.32
79.64
63.12
45.02
27.54
13.06
3.21
-1.85
-3.48
-3.97
-5.65
-10.04
-17.44
-26.89
-36.79
-45.53
-52.35
-57.72
-63.31
-71.63
-85.19
-105.66
-132.96
-150.0
-150.0
-150.0
-150.0
-150.0
-150.0
-150.0
-98.95
-37.14
22.39
73.51
112.68
139.2
150.0
150.0
150.0
150.0
150.0
140.39
128.28
115.9
104.92
96.29
89.85
84.5
78.82
71.99
64.11
55.83
47.8
39.91
31.14
19.88
4.53
-16.03
-42.22
-73.44
-107.79
-141.67
-150.0
-150.0
-150.0
-150.0
-122.81
-67.95
-7.0
51.48
100.79
137.35
150.0
150.0
150.0
150.0
150.0
146.55
130.1
113.29
97.96
85.26
75.04
65.89
55.75
42.81
26.54
8.09
-9.96
-24.58
-33.59
-36.71
-35.91
-34.7
-37.03
-45.91
-62.6
-86.33
-114.36
-142.3
-150.0
-150.0
-150.0
-146.37
-105.92
-54.57
-0.59
47.89
85.4
110.4
124.67
131.43
133.14
130.44
122.56
108.56
88.69
64.87
40.11
17.33
-1.71
-16.92
-29.54
-41.32
-53.63
-66.79
-80.08
-92.14
-101.73
-108.41
-112.9
-116.89
-122.5
-131.64
-145.33
-150.0
-150.0
-150.0
-150.0
-150.0
-150.0
-150.0
-122.0
-69.68
-15.99
32.65
71.79
99.64
116.69
124.75
125.86
121.65
113.49
102.91
91.87
82.59
76.83
75.13
76.37
78.19
78.12
74.74
68.34
60.5
53.2
47.55
43.1
37.98
29.7
16.07
-4.05
-30.24
-60.3
-90.12
-114.06
-126.01
-121.2
-98.12
-59.65
-12.62
34.35
73.78
101.62
117.88
125.35
127.39
126.01
121.36
112.57
99.21
82.36
64.53
48.56
36.26
27.66
21.08
14.29
5.7
-4.81
-16.07
-26.55
-35.36
-42.96
-51.01
-61.67
-76.65
-96.6
-120.96
-147.99
-150.0
-150.0
-150.0
-150.0
-150.0
-150.0
-119.86
-62.16
-1.72
53.89
98.89
130.66
149.79
150.0
150.0
150.0
150.0
143.42
130.09
114.05
97.18
81.7
69.09
59.37
51.22
42.84
32.94
21.38
9.07
-2.73
-13.22
-22.65
-32.23
-43.61
-58.32
-77.42
-101.19
-128.96
-150.0
-150.0
-150.0
-150.0
-150.0
-150.0
-140.66
-87.3
-30.71
21.74
64.73
95.91
115.59
125.85
129.34
128.47
125.16
120.81
116.39
112.52
109.27
106.08
101.7
94.42
82.71
65.9
44.81
21.76
0.06
-17.12
-27.99
-32.95
-34.65
-37.21
-44.94
-60.7
-84.69
-113.8
-142.0
-150.0
-150.0
-150.0
-119.9
-75.16
-26.09
19.1
54.85
79.41
94.23
102.19
105.54
104.99
100.12
90.62
77.45
63.04
50.46
42.11
38.64
38.72
39.77
39.17
35.26
27.77
17.5
5.65
-6.98
-20.28
-34.67
-50.7
-68.55
-87.9
-107.79
-126.59
-141.86
-150.0
-148.19
-132.46
-102.19
-59.65
-10.25
38.85
81.18
113.04
134.35
147.8
150.0
150.0
150.0
150.0
150.0
150.0
150.0
138.96
127.03
117.2
109.09
100.82
90.04
75.05
55.72
33.48
10.72
-10.37
-28.71
-44.67
-59.63
-75.14
-92.23
-111.13
-131.39
-150.0
-150.0
-150.0
-150.0
-150.0
-150.0
-124.3
-77.46
-27.32
18.77
55.35
80.29
94.51
100.59
100.85
96.34
86.91
72.24
53.01
31.47
11.1
-4.44
-12.64
-12.98
-7.04
2.12
11.14
17.4
19.65
17.95
13.16
6.14
-2.67
-13.33
-26.11
-41.07
-57.98
-76.26
-95.04
-112.84
-127.28
-135.04
-132.47
-116.93
-88.12
-48.94
-4.86
37.68
73.44
99.79
116.91
126.74
131.33
131.78
128.11
120.0
107.93
93.73
80.33
70.69
66.49
67.23
70.32
72.04
69.13
60.08
45.68
28.5
11.63
-2.74
-14.18
-24.1
-35.04
-49.65
-69.8
-95.81
-126.1
-150.0
-150.0
-150.0
-150.0
-150.0
-140.47
-88.77
-31.34
23.44
69.12
102.65
124.35
136.52
141.57
140.83
134.47
122.49
105.91
87.22
69.9
57.16
50.66
49.82
52.18
54.46
53.85
48.94
39.93
28.1
14.98
1.49
-12.44
-27.71
-45.51
-66.75
-91.66
-119.49
-148.39
-150.0
-150.0
-150.0
-150.0
-150.0
-130.91
-76.66
-18.23
35.73
78.48
107.03
122.34
128.02
128.19
125.55
120.79
113.09
101.45
85.9
67.9
49.81
33.81
20.98
11.07
3.0
-4.29
-11.18
-17.11
-21.2
-22.93
-22.79
-22.32
-23.71
-29.02
-39.67
-56.26
-78.7
-106.19
-136.87
-150.0
-150.0
-150.0
-150.0
-150.0
-140.0
-87.72
-32.73
16.21
53.23
76.64
88.4
92.25
91.57
88.17
82.34
73.78
62.78
50.79
40.07
32.9
30.52
32.68
37.81
43.66
48.24
50.4
50.02
47.58
43.61
38.18
30.82
20.87
7.88
-8.02
-26.37
-46.71
-68.7
-91.67
-113.82
-131.57
-139.99
-134.33
-112.16
-74.85
-27.63
22.16
67.66
104.52
131.5
149.52
150.0
150.0
150.0
149.91
133.37
113.08
92.42
74.44
60.83
51.36
44.24
37.23
28.82
18.97
9.04
0.9
-4.12
-6.21
-7.22
-10.06
-17.75
-32.52
-55.14
-84.6
-117.96
-150.0
-150.0
-150.0
-150.0
-150.0
-112.29
-59.14
-4.18
44.99
83.6
110.35
126.58
134.62
136.42
132.95
124.64
112.2
97.19
81.91
68.64
58.72
51.88
46.38
39.76
29.97
16.38
0.12
-16.32
-30.11
-39.26
-43.45
-44.1
-43.82
-45.46
-51.25
-62.37
-78.74
-98.92
-119.95
-137.33
-145.73
-140.42
-119.09
-83.16
-37.82
9.65
52.36
86.08
110.05
126.05
136.56
142.99
145.16
141.91
132.48
117.49
99.14
80.44
63.97
50.86
40.43
30.63
19.06
4.2
-13.82
-33.23
-51.52
-66.61
-77.94
-86.77
-95.56
-107.03
-123.08
-144.31
-150.0
-150.0
-150.0
-150.0
-150.0
-150.0
-150.0
-150.0
-110.27
-57.07
-10.23
25.92
50.57
65.54
73.55
76.65
75.71
70.95
62.97
53.35
44.5
38.68
36.85
38.12
39.97
39.44
34.47
24.75
11.79
-2.03
-14.62
-25.13
-34.19
-43.5
-54.98
-70.07
-89.19
-111.4
-134.11
-150.0
-150.0
-150.0
-140.26
-106.15
-62.42
-16.35
25.07
57.49
80.19
95.24
105.66
113.52
119.22
122.06
121.54
118.26
113.98
110.68
109.39
109.44
108.68
104.5
95.13
80.58
62.87
45.23
30.86
21.61
17.22
15.28
12.19
4.34
-10.73
-33.47
-62.1
-92.7
-119.66
-136.74
-138.45
-121.74
-87.34
-40.05
12.41
61.58
100.87
127.19
141.07
145.39
143.45
137.55
128.62
116.89
102.93
88.27
75.23
65.93
61.29
60.33
60.42
58.43
51.98
40.46
25.08
8.08
-8.42
-23.55
-37.98
-53.61
-72.7
-96.92
-126.65
-150.0
-150.0
-150.0
-150.0
-150.0
-150.0
-150.0
-149.24
-90.94
-32.58
18.68
58.46
85.55
101.21
107.7
107.09
100.7
89.48
74.59
57.86
41.64
28.0
17.81
10.33
3.52
-4.76
-15.62
-28.42
-41.01
-50.76
-55.81
-55.99
-52.84
-49.04
-47.48
-50.47
-59.18
-73.18
-90.09
-105.51
-113.8
-109.58
-89.76
-55.07
-10.26
37.34
80.39
113.86
136.16
148.48
150.0
150.0
145.2
132.61
114.11
91.07
66.29
43.21
24.47
10.95
1.55
-5.94
-13.57
-22.13
-30.69
-37.44
-40.82
-40.67
-38.75
-38.1
-42.03
-52.92
-71.41
-96.08
-123.44
-148.43
-150.0
-150.0
-150.0
-126.95
-87.53
-44.42
-5.04
25.43
45.43
56.74
62.9
67.16
71.21
75.07
77.97
79.42
79.73
79.75
80.13
80.66
80.26
77.43
71.28
62.08
51.39
41.35
33.57
28.26
23.85
17.56
6.32
-12.14
-38.42
-70.97
-105.98
-137.73
-150.0
-150.0
-150.0
-118.27
-70.32
-15.38
38.12
83.7
118.47
143.03
150.0
150.0
150.0
150.0
150.0
150.0
134.77
111.4
89.5
71.48
57.44
45.43
32.88
18.04
0.94
-16.75
-32.72
-45.31
-54.46
-61.85
-70.16
-82.15
-99.75
-123.35
-150.0
-150.0
-150.0
-150.0
-150.0
-150.0
-150.0
-135.91
-80.56
-23.82
28.21
71.88
106.22
131.89
149.66
150.0
150.0
150.0
133.96
110.37
85.09
62.47
45.32
33.88
26.1
18.88
9.67
-2.43
-16.55
-30.83
-43.76
-55.02
-65.82
-78.33
-94.83
-116.72
-143.8
-150.0
-150.0
-150.0
-150.0
-150.0
-150.0
-150.0
-122.56
-68.04
-15.66
28.98
62.71
84.97
96.94
100.58
97.62
89.4
77.13
62.27
46.76
32.58
21.18
13.01
7.45
3.54
0.7
-0.77
0.04
3.87
10.5
18.31
24.63
26.62
22.1
10.17
-8.64
-32.33
-57.34
-78.77
-90.94
-88.83
-69.81
-35.09
10.12
58.11
101.23
134.33
150.0
150.0
150.0
150.0
150.0
150.0
145.59
126.13
104.23
82.93
64.54
49.62
36.89
24.22
10.04
-5.52
-20.5
-31.95
-37.5
-36.7
-31.62
-26.19
-25.0
-31.82
-48.35
-73.64
-104.02
-133.54
-150.0
-150.0
-150.0
-121.25
-77.29
-26.61
22.59
63.93
94.48
114.8
127.4
134.97
138.98
139.7
137.05
131.71
125.42
120.45
118.41
119.27
121.21
121.42
117.59
108.94
96.62
82.93
70.08
59.01
48.93
37.83
23.42
4.18
-20.17
-48.55
-78.63
-106.93
-129.04
-140.34
-137.17
-118.36
-86.3
-46.74
-7.22
25.42
47.19
57.7
59.3
55.14
47.47
37.0
23.56
7.44
-9.72
-25.04
-35.47
-39.28
-36.97
-31.14
-25.33
-22.36
-23.16
-26.49
-29.85
-30.9
-28.87
-25.15
-22.85
-25.68
-36.59
-56.68
-84.61
-116.59
-146.91
-150.0
-150.0
-150.0
-133.58
-85.82
-28.15
30.94
83.43
123.71
149.43
150.0
150.0
150.0
135.37
113.9
89.58
65.22
43.91
28.09
18.62
14.32
12.39
9.65
3.9
-5.29
-16.73
-28.44
-39.01
-48.51
-58.64
-72.08
-91.49
-118.3
-150.0
-150.0
-150.0
-150.0
-150.0
-150.0
-150.0
-150.0
-125.1
-67.64
-15.17
27.75
59.56
81.06
93.94
99.74
99.47
94.15
85.51
76.24
69.44
67.47
70.74
77.33
83.63
86.03
82.62
74.13
63.48
54.34
49.19
48.14
48.89
47.89
41.78
28.63
8.41
-16.97
-43.89
-67.36
-81.69
-81.89
-65.43
-33.75
7.62
50.64
87.5
113.37
127.58
132.82
132.99
130.95
127.39
121.35
111.6
97.97
81.83
65.51
51.17
39.82
31.0
23.17
14.62
4.35
-7.49
-19.79
-31.16
-40.75
-48.74
-56.42
-65.64
-78.18
-95.21
-116.97
-142.65
-150.0
-150.0
-150.0
-150.0
-150.0
-150.0
-144.9
-95.03
-44.41
0.15
34.88
59.56
76.47
88.42
97.21
103.11
105.62
104.61
101.07
96.95
94.17
93.64
94.62
95.02
92.45
85.3
73.48
58.45
42.4
27.24
13.71
1.15
-12.06
-27.69
-47.05
-70.63
-98.01
-127.77
-150.0
-150.0
-150.0
-150.0
-150.0
-150.0
-117.2
-71.35
-26.64
12.69
45.13
71.23
92.01
107.76
117.83
121.47
118.9
111.95
103.5
96.37
92.02
89.94
88.05
83.74
75.21
62.17
45.87
28.33
11.39
-4.11
-18.48
-32.88
-48.63
-66.61
-86.83
-108.2
-128.46
-144.28
-150.0
-146.56
-126.61
-91.69
-44.65
9.27
63.97
114.12
150.0
150.0
150.0
150.0
150.0
150.0
150.0
150.0
150.0
133.78
106.2
84.49
69.97
61.89
58.05
55.85
53.35
49.84
45.74
41.91
38.66
35.03
28.83
17.19
-2.32
-30.68
-66.62
-106.36
-143.94
-150.0
-150.0
-150.0
-150.0
-109.24
-59.53
-10.94
29.37
57.8
74.58
82.41
84.54
82.96
78.04
69.28
56.55
41.14
25.56
12.67
4.23
0.05
-2.0
-4.93
-11.18
-21.46
-34.58
-48.15
-59.91
-68.83
-75.6
-82.16
-90.78
-103.2
-120.2
-141.42
-150.0
-150.0
-150.0
-150.0
-150.0
-150.0
-140.35
-87.36
-31.55
19.07
59.12
86.92
103.76
112.06
113.57
108.83
97.68
80.62
59.54
37.58
18.06
3.16
-6.91
-13.75
-19.75
-26.87
-35.57
-44.73
-52.32
-56.54
-56.88
-54.64
-52.57
-53.93
-61.51
-76.86
-99.77
-128.22
-150.0
-150.0
-150.0
-150.0
-150.0
-150.0
-105.79
-53.79
-4.35
36.65
66.47
85.39
95.22
97.76
93.89
83.92
68.63
50.03
31.49
16.63
7.82
5.04
5.78
6.2
2.93
-5.38
-17.69
-31.17
-42.84
-51.05
-56.3
-60.95
-68.31
-81.38
-101.69
-128.59
-150.0
-150.0
-150.0
-150.0
-150.0
-150.0
-134.23
-84.7
-34.61
10.45
47.52
76.27
98.02
114.25
125.66
132.07
133.07
128.99
121.3
112.43
104.81
99.97
97.85
97.13
96.05
93.48
89.48
85.04
81.39
78.92
76.53
71.89
62.17
45.09
19.88
-12.25
-48.01
-82.39
-109.41
-123.19
-119.39
-96.62
-57.22
-7.04
46.1
94.61
133.27
150.0
150.0
150.0
150.0
150.0
150.0
150.0
150.0
140.45
126.51
114.3
103.73
93.29
80.89
64.95
45.38
23.77
2.82
-14.92
-28.22
-37.76
-45.9
-55.81
-70.44
-91.46
-118.64
-149.46
-150.0
-150.0
-150.0
-150.0
-150.0
-125.13
-71.17
-16.63
31.53
69.47
96.73
115.11
126.84
133.2
134.26
129.61
119.56
105.74
90.86
77.65
67.72
60.85
55.27
48.66
39.37
27.14
13.11
-0.98
-13.73
-24.89
-35.45
-47.2
-62.01
-81.15
-104.69
-131.18
-150.0
-150.0
-150.0
-150.0
-150.0
-125.69
-73.2
-13.61
45.63
97.91
138.86
150.0
150.0
150.0
150.0
150.0
139.18
112.05
83.98
58.45
38.04
23.46
13.31
4.74
-5.33
-18.79
-35.77
-54.76
-73.59
-90.63
-105.55
-119.5
-134.49
-150.0
-150.0
-150.0
-150.0
-150.0
-150.0
-150.0
-150.0
-150.0
-150.0
-94.7
-38.09
13.01
55.09
86.83
108.5
120.92
124.87
120.92
110.01
94.04
76.04
59.82
48.89
45.26
48.64
56.59
65.57
72.46
75.79
76.06
75.11
74.82
75.95
77.59
77.55
73.15
62.09
43.26
17.19
-13.38
-43.55
-66.73
-76.32
-67.82
-40.82
0.37
47.98
93.44
130.27
150.0
150.0
150.0
150.0
150.0
150.0
149.59
129.56
107.34
86.15
68.55
55.4
45.61
36.8
26.55
13.47
-2.23
-19.08
-35.25
-49.59
-62.22
-74.47
-88.16
-104.74
-124.68
-147.35
-150.0
-150.0
-150.0
-150.0
-150.0
-150.0
-150.0
-125.31
-73.09
-20.68
25.84
63.02
90.48
109.89
123.2
131.34
133.93
130.32
120.79
107.37
93.45
82.44
76.29
74.59
74.86
73.77
68.8
59.28
46.49
32.81
20.43
10.29
1.78
-6.82
-17.6
-32.28
-51.93
-76.56
-104.89
-133.79
-150.0
-150.0
-150.0
-150.0
-125.01
-84.83
-43.33
-7.04
20.44
38.8
49.82
55.43
56.48
52.62
43.4
29.54
13.42
-1.52
-12.16
-17.06
-17.0
-14.53
-12.7
-13.77
-18.48
-26.1
-35.25
-44.8
-54.5
-65.1
-77.98
-94.47
-115.19
-139.56
-150.0
-150.0
-150.0
-150.0
-150.0
-150.0
-132.57
-79.19
-18.63
44.14
104.53
150.0
150.0
150.0
150.0
150.0
150.0
150.0
150.0
150.0
150.0
131.97
106.14
84.6
66.8
51.4
37.08
23.25
10.11
-1.82
-12.42
-22.55
-33.88
-48.5
-68.07
-93.13
-122.69
-150.0
-150.0
-150.0
-150.0
-150.0
-150.0
-104.0
-47.04
7.87
53.21
85.03
103.32
110.7
110.42
104.74
94.66
80.49
62.96
43.84
25.62
10.63
-0.05
-7.02
-12.3
-18.23
-26.23
-36.06
-45.79
-52.78
-54.98
-52.04
-45.74
-39.39
-36.66
-40.39
-51.85
-70.46
-93.83
-118.04
-137.93
-147.83
-142.88
-120.63
-82.31
-33.01
19.72
68.22
107.15
134.66
150.0
150.0
150.0
150.0
150.0
137.48
116.74
93.42
70.94
51.9
37.0
24.92
13.2
-0.33
-16.46
-34.19
-51.37
-65.63
-75.56
-81.15
-83.77
-85.51
-88.63
-94.98
-105.71
-120.77
-138.54
-150.0
-150.0
-150.0
-150.0
-120.0
-75.08
-22.89
29.15
74.62
109.82
134.09
148.93
150.0
150.0
150.0
148.53
138.65
127.71
117.82
110.43
105.57
101.8
96.94
89.32
78.76
66.72
55.66
47.69
43.43
41.56
39.15
32.66
19.0
-3.53
-34.61
-71.44
-108.79
-139.72
-150.0
-150.0
-136.27
-101.1
-58.35
-16.6
17.49
40.84
53.82
58.63
57.31
50.67
38.53
20.93
-0.72
-23.22
-42.54
-55.26
-59.83
-57.11
-49.78
-41.18
-33.92
-29.13
-26.49
-24.96
-23.74
-23.09
-24.44
-29.95
-41.72
-61.01
-87.54
-119.03
-150.0
-150.0
-150.0
-150.0
-150.0
-137.39
-88.69
-34.95
16.87
61.76
97.47
123.9
141.87
150.0
150.0
150.0
141.8
130.37
120.2
114.11
112.96
115.19
117.43
115.97
108.43
94.68
76.75
57.88
41.04
27.67
17.16
7.14
-5.66
-24.31
-50.43
-83.24
-119.05
-150.0
-150.0
-150.0
-150.0
-132.0
-87.9
-40.26
3.37
38.42
63.95
81.63
93.77
101.78
105.7
104.94
99.47
90.49
80.21
70.86
63.69
58.4
53.47
47.03
37.86
26.05
12.86
0.06
-10.9
-19.65
-27.07
-34.89
-45.07
-59.02
-77.23
-98.86
-121.61
-141.68
-150.0
-150.0
-137.32
-103.19
-54.43
2.63
59.77
109.24
145.72
150.0
150.0
150.0
150.0
133.23
106.84
78.53
51.56
28.92
12.47
2.17
-3.87
-8.6
-14.76
-23.82
-35.65
-48.84
-61.63
-72.83
-82.39
-91.35
-101.43
-114.21
-130.32
-148.77
-150.0
-150.0
-150.0
-150.0
-136.68
-92.01
-38.67
15.74
64.08
101.6
126.63
139.89
143.13
137.84
124.98
105.45
80.99
54.47
29.43
8.94
-5.5
-14.47
-20.14
-25.05
-30.83
-37.48
-43.64
-47.37
-47.45
-44.18
-39.58
-36.84
-39.4
-49.81
-68.75
-94.29
-121.83
-144.68
-150.0
-149.61
-124.72
-83.97
-34.09
16.77
61.7
96.86
121.8
138.14
147.77
150.0
149.48
141.16
127.41
110.55
93.86
80.37
71.6
66.95
64.09
60.25
53.47
43.49
31.65
20.05
10.35
2.85
-3.72
-11.72
-23.71
-41.56
-65.81
-95.17
-126.29
-150.0
-150.0
-150.0
-150.0
-126.29
-80.22
-28.45
21.5
64.01
96.38
118.33
130.74
134.45
129.99
118.08
100.62
80.86
62.78
49.76
43.23
42.23
43.86
44.62
41.91
34.94
24.76
13.36
2.55
-7.18
-16.84
-28.62
-44.9
-67.21
-95.39
-127.07
-150.0
-150.0
-150.0
-150.0
-150.0
-119.46
-68.57
-16.4
29.24
63.03
83.13
90.62
88.2
78.79
64.91
48.75
32.54
18.75
9.64
6.43
8.65
14.09
19.57
22.21
20.65
15.44
8.63
2.6
-1.27
-3.43
-6.0
-12.14
-24.81
-45.62
-74.09
-107.22
-139.75
-150.0
-150.0
-150.0
-145.35
-104.92
-55.64
-5.11
40.19
76.53
102.9
120.13
129.47
131.78
127.64
117.98
104.72
90.54
78.12
68.88
62.47
56.96
49.95
40.02
27.44
14.1
2.39
-6.16
-11.98
-17.52
-26.56
-42.89
-68.79
-103.83
-144.3
-150.0
-150.0
-150.0
-150.0
-150.0
-147.66
-97.84
-49.73
-9.06
22.3
45.79
64.22
79.67
92.44
101.38
105.28
104.12
99.58
94.27
90.43
88.7
87.88
85.74
80.39
71.4
60.13
49.02
40.3
34.79
31.33
27.15
18.77
3.23
-20.84
-52.34
-87.47
-120.2
-143.48
-150.0
-139.03
-107.83
-61.67
-7.61
46.46
94.03
131.23
150.0
150.0
150.0
150.0
150.0
145.3
122.88
98.44
75.08
55.2
39.68
27.7
17.34
6.76
-4.86
-16.94
-27.96
-36.34
-41.58
-44.79
-48.58
-56.21
-70.51
-92.58
-120.97
-150.0
-150.0
-150.0
-150.0
-150.0
-133.75
-83.66
-29.15
22.03
64.25
95.16
115.34
126.99
132.25
132.26
127.25
117.5
104.16
89.6
76.64
67.4
62.18
59.35
56.11
49.96
39.95
26.97
13.22
0.98
-8.69
-16.37
-24.07
-34.4
-49.48
-70.19
-95.62
-122.91
-147.48
-150.0
-150.0
-150.0
-121.33
-77.51
-27.69
20.36
60.29
88.75
105.5
112.42
111.86
105.62
94.92
81.09
66.23
53.24
44.94
42.71
45.77
51.15
55.0
54.18
47.45
35.71
21.24
6.33
-7.92
-21.92
-37.31
-56.02
-79.29
-106.84
-136.4
-150.0
-150.0
-150.0
-150.0
-150.0
-106.1
-51.26
6.45
59.99
104.38
137.44
150.0
150.0
150.0
150.0
150.0
147.86
131.01
114.88
102.14
93.98
89.55
86.45
81.92
74.22
63.34
50.83
38.82
28.8
20.88
13.65
4.82
-7.86
-25.82
-49.04
-75.72
-102.19
-123.27
-133.17
-127.2
-103.54
-64.48
-16.24
32.77
74.69
104.74
122.28
129.98
131.73
130.39
126.62
119.28
106.9
89.25
68.02
46.29
27.15
12.26
1.21
-8.06
-18.04
-30.3
-44.66
-59.39
-72.25
-81.67
-87.7
-92.12
-97.71
-107.24
-122.43
-143.29
-150.0
-150.0
-150.0
-150.0
-150.0
-150.0
-150.0
-101.46
-41.28
18.66
71.73
113.51
142.42
150.0
150.0
150.0
150.0
140.28
121.74
101.75
83.51
69.98
62.77
61.36
63.28
65.15
64.08
58.8
49.95
39.44
29.27
20.41
12.25
2.89
-9.97
-28.22
-52.67
-82.7
-116.12
-149.03
-150.0
-150.0
-150.0
-150.0
-123.88
-69.19
-10.23
44.02
87.12
116.59
133.7
141.68
143.64
141.28
134.85
124.22
110.03
94.25
79.66
68.77
62.62
60.35
59.68
57.95
53.4
45.72
35.9
25.51
15.75
6.96
-1.45
-10.52
-21.25
-34.29
-50.06
-68.9
-91.0
-115.81
-141.17
-150.0
-150.0
-150.0
-148.49
-108.25
-56.05
-0.62
49.34
88.05
113.87
128.56
135.12
135.72
130.75
119.47
101.59
78.58
53.82
31.61
15.41
6.47
3.47
3.29
2.54
-0.93
-7.32
-15.14
-22.32
-27.49
-30.8
-33.91
-39.31
-49.38
-65.68
-88.49
-116.58
-146.94
-150.0
-150.0
-150.0
-150.0
-147.97
-97.84
-40.17
16.02
63.35
97.86
119.16
129.0
129.43
121.56
105.67
82.27
53.39
22.99
-3.74
-22.04
-29.44
-26.8
-18.05
-8.58
-3.02
-3.51
-9.17
-17.13
-24.37
-29.45
-33.22
-38.14
-47.05
-61.92
-83.25
-109.92
-139.34
-150.0
-150.0
-150.0
-150.0
-150.0
-114.79
-59.84
-4.22
43.85
79.56
102.17
113.94
117.85
115.88
108.53
95.73
78.21
58.21
39.15
24.3
15.32
11.6
10.51
8.81
4.15
-4.04
-14.41
-24.72
-33.07
-38.93
-43.4
-48.78
-57.66
-72.13
-93.18
-120.19
-150.0
-150.0
-150.0
-150.0
-150.0
-150.0
-116.8
-56.74
6.05
63.77
111.09
145.91
150.0
150.0
150.0
150.0
150.0
150.0
150.0
150.0
140.11
132.52
128.16
125.73
122.94
117.4
107.77
94.2
78.22
61.99
47.19
34.31
22.42
9.64
-6.27
-27.06
-53.27
-83.63
-114.62
-140.68
-150.0
-150.0
-126.4
-80.36
-18.7
49.79
115.32
150.0
150.0
150.0
150.0
150.0
150.0
150.0
142.9
101.32
59.3
21.33
-9.22
-31.34
-46.62
-58.49
-70.65
-85.59
-103.84
-124.19
-144.49
-150.0
-150.0
-150.0
-150.0
-150.0
-150.0
-150.0
-150.0
-150.0
-150.0
-150.0
-150.0
-150.0
-150.0
-150.0
-150.0
-130.82
-62.28
3.98
63.35
111.05
143.06
150.0
150.0
142.58
123.29
103.88
88.38
78.53
74.04
73.29
74.35
75.57
76.06
75.6
74.46
72.95
71.01
67.99
62.48
52.5
35.78
10.56
-23.3
-63.35
-104.04
-137.47
-150.0
-150.0
-123.96
-76.39
-16.64
45.24
99.85
140.78
150.0
150.0
150.0
150.0
133.06
104.91
73.12
40.35
9.72
-15.96
-35.12
-47.97
-56.29
-62.36
-67.9
-73.47
-78.84
-83.71
-88.69
-95.51
-106.46
-123.44
-146.93
-150.0
-150.0
-150.0
-150.0
-150.0
-150.0
-150.0
-150.0
-150.0
-150.0
-128.01
-72.68
-15.12
42.51
97.01
144.08
150.0
150.0
150.0
150.0
150.0
150.0
137.06
120.32
107.18
97.19
89.41
82.69
75.93
68.22
59.09
48.68
37.53
26.27
15.16
3.68
-9.54
-26.37
-48.32
-75.35
-105.02
-132.43
-150.0
-150.0
-141.22
-108.92
-62.12
-7.11
49.02
100.04
141.61
150.0
150.0
150.0
150.0
150.0
150.0
134.25
109.39
86.64
68.53
56.05
48.29
42.72
36.25
26.55
12.96
-3.31
-19.99
-34.83
-46.77
-56.34
-65.52
-76.87
-92.45
-112.63
-135.44
-150.0
-150.0
-150.0
-150.0
-128.64
-84.9
-31.74
25.68
82.47
134.68
150.0
150.0
150.0
150.0
150.0
150.0
150.0
150.0
150.0
150.0
134.5
114.13
95.55
77.6
59.21
39.94
20.19
0.83
-17.35
-34.15
-50.19
-66.85
-85.9
-108.98
-136.94
-150.0
-150.0
-150.0
-150.0
-150.0
-150.0
-150.0
-148.09
-87.27
-24.09
35.55
87.57
129.96
150.0
150.0
150.0
150.0
150.0
150.0
150.0
144.54
121.23
101.18
86.63
77.61
72.06
66.88
59.47
48.85
35.84
22.31
10.12
0.13
-8.03
-15.76
-24.97
-37.66
-55.48
-79.01
-106.93
-135.45
-150.0
-150.0
-150.0
-131.57
-84.68
-27.05
31.97
83.96
123.76
150.0
150.0
150.0
150.0
150.0
150.0
141.62
124.58
107.54
93.38
84.05
79.57
78.05
76.47
71.98
62.94
49.52
33.32
16.58
1.01
-12.91
-26.21
-41.05
-59.96
-84.89
-116.32
-150.0
-150.0
-150.0
-150.0
-150.0
-150.0
-150.0
-118.93
-51.49
16.43
76.34
121.65
148.59
150.0
146.67
122.59
87.92
46.51
2.24
-41.0
-79.34
-109.4
-129.15
-138.52
-139.53
-135.54
-130.09
-125.66
-123.15
-122.0
-120.98
-119.13
-116.4
-113.89
-113.53
-117.47
-127.25
-142.91
-150.0
-150.0
-150.0
-150.0
-150.0
-148.23
-102.52
-46.77
13.46
72.48
125.35
150.0
150.0
150.0
150.0
150.0
150.0
150.0
150.0
133.02
113.57
98.5
88.42
82.6
79.29
76.42
72.48
67.12
60.92
54.68
48.65
42.09
33.43
20.74
2.32
-23.04
-55.76
-94.92
-137.6
-150.0
-150.0
-150.0
-150.0
-150.0
-149.34
-91.77
-31.32
24.45
70.94
106.91
133.42
150.0
150.0
150.0
150.0
150.0
150.0
144.71
134.19
128.18
127.7
131.17
134.95
134.61
126.65
109.73
84.96
55.25
24.12
-5.43
-31.66
-54.17
-73.61
-91.39
-109.13
-128.01
-147.9
-150.0
-150.0
-150.0
-150.0
-133.93
-84.95
-26.94
30.85
79.88
114.93
135.22
143.44
143.6
138.93
130.84
119.31
104.07
85.71
66.04
47.46
31.98
20.37
11.91
4.97
-2.21
-10.72
-20.74
-31.6
-42.39
-52.46
-61.83
-71.22
-81.86
-95.17
-112.26
-133.62
-150.0
-150.0
-150.0
-150.0
-150.0
-150.0
-150.0
-150.0
-95.46
-33.55
28.83
86.24
134.42
150.0
150.0
150.0
150.0
150.0
150.0
128.48
98.16
70.48
48.1
31.88
20.75
12.31
3.99
-5.86
-17.42
-29.73
-41.6
-52.5
-63.09
-75.06
-90.56
-111.33
-137.92
-150.0
-150.0
-150.0
-150.0
-150.0
-150.0
-150.0
-127.74
-66.77
-5.78
49.11
94.05
127.51
149.65
150.0
150.0
150.0
144.03
124.2
100.61
76.43
54.88
38.34
27.44
21.04
16.82
12.38
6.33
-1.31
-9.43
-16.49
-21.48
-24.5
-26.84
-30.66
-38.31
-51.55
-70.66
-93.81
-116.95
-134.38
-140.08
-129.34
-100.26
-54.71
2.0
62.27
118.26
150.0
150.0
150.0
150.0
150.0
150.0
150.0
150.0
150.0
129.29
105.27
83.96
66.7
53.18
41.62
29.8
16.12
0.3
-16.8
-33.82
-49.76
-64.51
-78.79
-93.79
-110.82
-130.93
-150.0
-150.0
-150.0
-150.0
-150.0
-150.0
-150.0
-150.0
-150.0
-102.31
-40.23
20.37
73.7
115.11
141.71
150.0
149.47
134.92
112.85
86.97
60.48
35.98
15.52
0.61
-8.15
-11.3
-10.4
-7.36
-3.71
-0.03
3.78
7.83
11.45
12.84
9.44
-1.36
-21.26
-50.32
-86.35
-124.86
-150.0
-150.0
-150.0
-150.0
-144.87
-95.67
-36.4
25.56
83.18
130.91
150.0
150.0
150.0
150.0
150.0
136.06
105.34
74.01
45.72
23.55
9.23
2.56
1.43
2.61
3.0
0.71
-4.52
-11.69
-19.47
-27.15
-35.18
-45.16
-59.3
-79.51
-106.24
-137.7
-150.0
-150.0
-150.0
-150.0
-150.0
-145.33
-95.21
-39.84
14.85
64.58
106.94
141.05
150.0
150.0
150.0
150.0
150.0
150.0
150.0
140.44
129.09
120.22
111.94
101.72
87.55
69.02
47.33
24.78
3.7
-14.47
-29.76
-43.63
-58.52
-77.03
-100.87
-129.83
-150.0
-150.0
-150.0
-150.0
-150.0
-150.0
-106.79
-47.41
12.76
67.06
111.07
142.96
150.0
150.0
150.0
150.0
150.0
140.87
122.18
102.96
85.5
71.44
61.01
52.93
44.93
34.83
21.47
5.18
-12.51
-29.64
-44.87
-58.0
-70.04
-82.86
-98.47
-118.3
-142.47
-150.0
-150.0
-150.0
-150.0
-150.0
-150.0
-150.0
-99.11
-39.83
20.83
77.6
126.09
150.0
150.0
150.0
150.0
150.0
150.0
125.01
98.02
74.56
56.97
45.89
40.2
37.43
34.69
29.69
21.45
10.29
-2.79
-16.92
-31.92
-48.5
-68.03
-91.9
-120.79
-150.0
-150.0
-150.0
-150.0
-150.0
-150.0
-150.0
-150.0
-95.87
-37.8
17.5
65.74
104.09
131.05
146.33
150.0
145.54
133.27
116.48
98.01
80.55
66.14
55.72
48.72
43.45
37.98
31.33
24.12
18.3
16.0
18.09
23.26
28.21
28.68
20.95
3.18
-23.85
-56.48
-88.74
-113.34
-123.39
-114.33
-85.72
-41.71
9.88
60.1
101.66
131.05
148.82
150.0
150.0
150.0
150.0
150.0
149.7
134.82
116.61
97.8
80.75
66.43
54.0
41.56
27.19
10.14
-8.84
-27.98
-45.4
-60.19
-72.75
-84.59
-97.65
-113.66
-133.68
-150.0
-150.0
-150.0
-150.0
-150.0
-150.0
-150.0
-150.0
-107.04
-47.73
9.76
59.64
98.37
124.71
139.27
143.57
139.45
128.73
113.41
95.86
79.0
65.76
58.31
57.06
60.29
64.85
67.59
66.83
63.13
58.73
56.18
56.74
59.52
61.69
59.61
50.06
31.19
2.87
-33.04
-72.63
-109.98
-137.85
-149.38
-140.34
-110.96
-66.45
-15.31
33.47
73.35
101.73
119.46
128.91
132.03
129.38
120.63
105.96
87.11
67.41
50.71
39.8
35.23
35.19
36.35
35.32
29.99
20.05
6.79
-7.83
-22.26
-36.13
-50.34
-66.69
-87.15
-113.09
-144.65
-150.0
-150.0
-150.0
-150.0
-150.0
-150.0
-150.0
-150.0
-128.78
-67.77
-10.13
39.28
77.97
105.47
122.56
130.52
130.85
125.45
116.74
107.49
100.13
95.83
94.02
92.43
88.17
79.1
64.92
47.39
29.51
14.23
3.04
-4.65
-11.32
-20.45
-35.33
-57.86
-87.71
-121.88
-150.0
-150.0
-150.0
-150.0
-149.23
-103.13
-48.95
4.12
48.58
80.65
100.68
111.71
117.21
119.21
117.85
112.23
102.03
88.59
74.83
64.04
58.23
57.01
57.67
56.5
50.4
38.26
21.12
1.47
-18.05
-35.73
-51.12
-64.82
-77.83
-91.16
-105.69
-122.05
-140.22
-150.0
-150.0
-150.0
-150.0
-150.0
-127.1
-80.74
-28.85
21.77
66.14
102.11
129.96
150.0
150.0
150.0
150.0
150.0
141.96
117.27
91.98
70.84
56.85
50.39
49.51
51.14
52.6
52.58
51.15
49.02
46.41
42.37
34.8
21.25
-0.16
-29.94
-66.68
-106.96
-145.54
-150.0
-150.0
-150.0
-150.0
-121.07
-66.8
-10.18
40.06
78.13
102.4
114.94
119.6
119.85
117.36
111.96
102.65
89.06
72.23
54.51
38.54
26.0
17.0
10.24
4.01
-2.72
-9.75
-15.78
-19.52
-20.63
-20.34
-21.22
-26.25
-37.78
-56.86
-83.02
-114.38
-147.75
-150.0
-150.0
-150.0
-150.0
-150.0
-129.39
-73.13
-13.8
40.92
85.85
118.97
140.83
150.0
150.0
150.0
139.75
120.47
96.92
72.96
52.41
37.66
28.72
23.31
18.14
10.45
-0.86
-14.95
-29.65
-42.63
-52.57
-59.71
-65.77
-73.42
-85.39
-103.58
-128.2
-150.0
-150.0
-150.0
-150.0
-150.0
-150.0
-150.0
-99.75
-43.73
9.51
54.5
88.21
110.08
121.16
123.3
118.38
108.3
95.09
81.12
68.96
60.7
57.29
57.95
60.33
61.48
59.03
52.1
41.52
29.19
17.02
5.89
-4.73
-16.5
-31.51
-51.3
-76.07
-104.1
-131.61
-150.0
-150.0
-150.0
-132.4
-92.0
-41.26
12.07
60.5
98.84
125.2
140.46
146.78
145.97
138.74
125.08
105.41
81.71
57.67
37.77
25.56
22.21
25.95
32.99
39.14
41.53
39.44
34.03
27.12
19.91
12.21
2.48
-11.34
-31.0
-57.17
-88.92
-123.55
-150.0
-150.0
-150.0
-150.0
-150.0
-130.2
-80.01
-25.97
25.11
68.47
102.19
126.58
142.91
150.0
150.0
150.0
142.07
129.19
115.53
104.01
96.39
92.4
89.85
85.57
76.82
62.64
44.15
24.13
5.65
-9.41
-21.21
-31.97
-45.02
-63.58
-89.47
-122.35
-150.0
-150.0
-150.0
-150.0
-150.0
-150.0
-150.0
-123.76
-71.78
-24.32
14.8
45.1
68.25
86.09
99.06
106.05
105.43
96.76
81.76
64.1
47.99
36.53
30.57
28.73
28.59
28.0
26.18
23.64
21.57
20.67
20.46
19.2
14.37
3.66
-14.45
-40.1
-71.79
-106.25
-138.57
-150.0
-150.0
-150.0
-136.45
-92.32
-38.62
16.18
64.48
101.58
126.4
140.62
146.88
147.15
142.13
131.8
116.63
98.43
80.26
65.41
56.12
52.54
52.8
53.92
53.17
49.05
41.64
32.14
22.01
12.2
2.67
-7.47
-19.58
-35.06
-55.0
-79.86
-109.05
-140.39
-150.0
-150.0
-150.0
-150.0
-150.0
-117.82
-59.97
2.29
61.29
111.13
148.69
150.0
150.0
150.0
150.0
150.0
150.0
150.0
150.0
140.7
126.12
114.2
105.2
97.91
90.35
80.71
68.32
53.84
38.88
25.1
13.33
3.24
-6.57
-17.9
-32.38
-51.08
-74.26
-101.11
-129.32
-150.0
-150.0
-150.0
-150.0
-124.97
-76.43
-21.14
32.17
76.51
108.46
128.27
138.35
141.17
137.88
128.35
112.25
90.43
65.61
41.79
22.87
11.01
5.82
4.57
3.55
-0.35
-8.44
-20.0
-32.98
-45.11
-55.01
-62.7
-69.54
-77.69
-89.37
-106.28
-128.94
-150.0
-150.0
-150.0
-150.0
-150.0
-150.0
-150.0
-111.21
-52.17
4.83
53.13
89.17
112.58
124.88
128.15
123.99
113.59
98.37
80.7
63.81
51.12
44.88
45.27
50.07
55.48
57.58
53.83
43.85
29.34
13.08
-2.52
-16.4
-29.24
-42.89
-59.58
-80.97
-107.51
-137.85
-150.0
-150.0
-150.0
-150.0
-150.0
-145.97
-91.34
-31.41
24.72
70.15
101.9
120.81
129.98
132.69
130.88
124.99
114.72
100.35
83.45
66.75
53.18
44.58
40.94
40.44
40.39
38.37
33.13
24.94
14.91
4.23
-6.66
-18.24
-31.67
-48.11
-68.31
-92.41
-119.87
-149.21
-150.0
-150.0
-150.0
-150.0
-150.0
-150.0
-102.01
-40.26
21.34
75.37
117.16
145.31
150.0
150.0
150.0
150.0
137.17
115.99
92.35
69.6
51.04
38.72
32.51
30.27
28.82
25.36
18.46
8.28
-3.87
-16.64
-29.55
-43.31
-59.67
-80.6
-107.47
-140.26
-150.0
-150.0
-150.0
-150.0
-150.0
-150.0
-150.0
-150.0
-114.41
-52.52
7.14
60.09
103.36
135.46
150.0
150.0
150.0
150.0
136.82
116.34
95.55
77.46
63.85
54.67
48.1
41.52
32.7
20.94
7.17
-6.62
-18.48
-27.37
-33.56
-38.29
-43.56
-51.6
-64.42
-82.95
-106.06
-129.85
-147.96
-150.0
-140.59
-108.95
-62.57
-9.48
41.33
83.07
112.8
131.14
140.52
143.13
139.89
130.75
115.86
96.6
75.76
56.72
42.06
32.48
26.55
21.52
14.71
4.79
-7.72
-20.77
-31.92
-39.62
-44.06
-47.18
-52.01
-61.48
-77.35
-99.42
-125.13
-149.96
-150.0
-150.0
-150.0
-136.02
-93.18
-40.65
14.55
65.63
107.68
138.43
150.0
150.0
150.0
150.0
150.0
134.44
113.79
92.58
73.96
60.35
52.47
49.0
47.2
44.15
38.11
29.11
18.74
9.1
1.52
-4.25
-9.93
-18.1
-31.21
-50.88
-77.27
-108.64
-141.21
-150.0
-150.0
-150.0
-150.0
-126.94
-71.92
-9.52
51.64
104.31
144.15
150.0
150.0
150.0
150.0
150.0
129.95
102.79
76.6
55.03
40.3
32.26
28.51
25.52
20.41
12.3
2.58
-6.17
-11.67
-13.46
-13.36
-14.79
-21.48
-36.18
-59.81
-91.06
-126.42
-150.0
-150.0
-150.0
-150.0
-150.0
-122.66
-71.73
-20.69
23.42
56.89
79.6
93.62
101.31
103.88
101.2
92.78
79.08
62.2
45.45
32.1
23.91
20.36
18.91
16.39
10.52
0.97
-10.68
-22.01
-31.26
-38.39
-45.26
-54.73
-69.51
-90.79
-117.57
-146.6
-150.0
-150.0
-150.0
-150.0
-146.65
-99.52
-44.27
11.03
59.05
95.09
117.82
128.61
130.07
124.65
113.92
99.02
81.46
63.65
48.56
38.7
34.88
35.61
37.65
37.46
32.78
23.46
11.28
-1.2
-12.06
-21.02
-29.58
-40.47
-56.43
-79.09
-107.86
-139.52
-150.0
-150.0
-150.0
-150.0
-149.85
-103.4
-47.23
12.07
68.17
116.12
150.0
150.0
150.0
150.0
150.0
150.0
137.12
112.64
89.09
69.28
55.08
46.82
43.12
41.48
39.31
35.06
28.65
21.08
13.59
6.56
-0.98
-11.2
-26.68
-49.39
-79.61
-115.2
-150.0
-150.0
-150.0
-150.0
-150.0
-135.67
-82.5
-25.12
28.36
72.28
104.5
125.75
138.13
143.46
142.45
135.07
121.63
103.69
84.24
66.77
53.91
46.17
41.75
37.46
30.37
19.31
5.31
-8.96
-20.7
-28.51
-33.12
-37.05
-43.6
-55.47
-73.85
-97.89
-124.62
-149.27
-150.0
-150.0
-150.0
-123.96
-78.99
-27.67
21.64
62.09
90.26
106.45
113.44
114.43
111.48
105.27
95.81
83.67
70.6
59.17
51.7
48.98
49.8
51.25
50.07
43.95
32.47
17.07
0.16
-16.11
-30.82
-44.71
-59.68
-77.83
-100.48
-127.17
-150.0
-150.0
-150.0
-150.0
-150.0
-150.0
-108.52
-53.29
4.71
59.14
105.26
140.64
150.0
150.0
150.0
150.0
150.0
150.0
148.84
128.87
109.49
93.72
83.28
77.92
75.65
73.81
70.29
64.37
56.61
48.16
39.8
31.34
21.7
9.3
-7.34
-29.19
-56.19
-86.89
-117.97
-144.11
-150.0
-150.0
-133.33
-91.88
-38.28
18.09
68.07
105.58
129.02
140.48
143.69
141.67
135.58
125.05
109.49
89.36
66.67
44.4
25.33
10.97
1.11
-5.81
-11.87
-18.78
-27.25
-36.98
-47.12
-56.84
-65.88
-74.66
-84.1
-95.22
-108.84
-125.43
-145.06
-150.0
-150.0
-150.0
-150.0
-150.0
-150.0
-150.0
-110.76
-53.6
2.09
49.63
85.49
109.47
123.4
129.41
128.65
121.43
108.03
89.87
69.83
51.54
38.16
30.99
29.13
29.95
30.48
28.72
24.3
18.32
12.43
7.74
3.97
-0.5
-8.03
-20.88
-40.36
-66.28
-96.65
-127.62
-150.0
-150.0
-150.0
-147.98
-110.66
-61.64
-9.28
38.03
74.5
98.25
110.92
115.77
115.78
112.42
105.96
96.55
85.28
74.47
66.85
64.26
66.6
71.64
75.88
76.05
70.42
59.48
45.52
31.45
19.41
9.67
0.69
-10.32
-26.23
-49.01
-79.01
-114.53
-150.0
-150.0
-150.0
-150.0
-150.0
-150.0
-114.31
-52.79
10.27
67.36
113.61
147.3
150.0
150.0
150.0
150.0
150.0
146.36
123.6
101.0
82.37
70.07
64.06
62.03
60.56
56.79
49.53
39.47
28.41
17.89
8.17
-2.02
-14.94
-32.89
-57.33
-88.26
-123.81
-150.0
-150.0
-150.0
-150.0
-150.0
-150.0
-105.92
-44.9
13.82
62.49
97.14
117.82
127.25
128.64
124.04
113.95
98.23
77.42
53.76
30.8
12.15
-0.17
-6.75
-10.55
-15.46
-24.55
-38.69
-56.37
-74.59
-90.38
-102.14
-110.19
-116.42
-123.31
-132.96
-146.35
-150.0
-150.0
-150.0
-150.0
-150.0
-150.0
-150.0
-111.08
-54.37
5.4
60.71
105.47
136.44
150.0
150.0
150.0
144.39
129.47
111.05
90.37
69.17
49.64
33.73
22.32
14.8
9.27
3.44
-4.4
-14.75
-26.88
-39.41
-51.22
-62.19
-73.41
-86.86
-104.47
-127.13
-150.0
-150.0
-150.0
-150.0
-150.0
-150.0
-150.0
-103.37
-48.16
7.28
57.61
98.98
129.31
148.09
150.0
150.0
145.5
130.97
113.33
95.27
79.52
68.3
62.57
61.58
63.07
64.2
62.85
58.4
51.87
45.1
39.66
35.84
32.45
27.17
17.33
0.79
-23.13
-53.0
-84.74
-112.01
-127.44
-124.9
-101.79
-60.51
-8.06
46.19
93.66
129.22
150.0
150.0
150.0
150.0
150.0
150.0
139.18
118.45
95.82
74.92
58.74
48.35
42.6
38.8
33.96
26.16
15.11
2.07
-11.16
-23.22
-33.94
-44.36
-56.06
-70.53
-88.66
-110.61
-135.66
-150.0
-150.0
-150.0
-150.0
-150.0
-150.0
-125.19
-69.08
-10.02
44.51
89.38
122.5
144.22
150.0
150.0
150.0
137.71
116.27
90.9
65.75
44.92
30.85
23.5
20.43
18.17
13.8
6.27
-3.55
-13.61
-22.15
-28.87
-35.21
-43.79
-57.45
-78.14
-106.08
-139.33
-150.0
-150.0
-150.0
-150.0
-150.0
-150.0
-119.93
-63.62
-8.21
40.62
79.88
109.0
128.64
139.49
141.69
135.2
120.68
100.12
76.86
54.7
36.61
23.7
14.94
7.81
-0.37
-11.17
-24.43
-38.46
-50.86
-59.74
-64.53
-66.39
-67.87
-72.27
-82.63
-100.43
-124.61
-150.0
-150.0
-150.0
-150.0
-150.0
-110.25
-55.74
2.86
58.21
105.08
140.96
150.0
150.0
150.0
150.0
150.0
150.0
143.87
121.78
100.09
81.76
68.63
60.68
56.21
52.68
47.99
41.47
33.98
27.34
22.97
21.03
19.99
17.2
9.9
-3.88
-24.7
-51.53
-81.82
-111.51
-135.29
-147.27
-142.39
-118.22
-76.42
-22.96
33.47
84.12
122.94
148.06
150.0
150.0
150.0
150.0
150.0
142.48
125.45
105.55
85.62
68.49
55.81
47.38
41.59
36.24
29.7
21.51
12.59
4.57
-1.08
-3.84
-4.65
-5.75
-9.98
-19.94
-37.29
-62.33
-93.85
-128.92
-150.0
-150.0
-150.0
-150.0
-150.0
-127.16
-73.1
-17.53
31.61
69.65
95.91
112.52
122.3
126.97
126.62
120.46
108.25
91.27
72.29
54.62
40.69
31.04
24.17
17.36
8.0
-5.22
-21.65
-39.07
-54.7
-66.47
-73.88
-78.23
-82.0
-88.06
-98.84
-115.46
-137.25
-150.0
-150.0
-150.0
-150.0
-150.0
-132.72
-79.05
-19.31
37.51
84.28
117.5
137.59
147.4
150.0
147.9
141.01
129.12
112.32
92.06
70.98
52.04
37.22
26.78
19.23
12.19
3.55
-7.61
-20.56
-33.3
-43.5
-49.45
-50.98
-49.55
-47.96
-49.46
-56.95
-72.09
-94.56
-121.73
-148.69
-150.0
-150.0
-150.0
-131.76
-82.57
-23.26
36.87
89.06
127.5
150.0
150.0
150.0
150.0
145.7
134.25
120.42
104.72
88.65
74.37
63.8
57.6
54.73
52.82
49.17
41.73
29.83
14.32
-3.03
-20.22
-35.89
-49.7
-62.45
-75.68
-91.3
-110.9
-135.19
-150.0
-150.0
-150.0
-150.0
-150.0
-150.0
-150.0
-119.05
-59.79
-3.09
44.25
78.96
101.43
114.32
120.77
122.75
120.75
114.3
103.18
88.25
71.64
56.06
43.73
35.36
29.92
25.18
18.77
9.27
-3.2
-17.3
-31.23
-43.72
-54.57
-64.59
-75.09
-87.2
-101.54
-118.06
-135.93
-150.0
-150.0
-150.0
-150.0
-148.02
-111.07
-60.41
-1.94
56.61
107.99
147.35
150.0
150.0
150.0
150.0
150.0
150.0
146.08
124.78
102.61
82.17
65.45
53.09
44.09
36.44
28.17
18.22
6.89
-4.51
-14.4
-21.95
-27.61
-33.18
-41.3
-54.61
-74.82
-101.78
-132.97
-150.0
-150.0
-150.0
-150.0
-150.0
-111.88
-55.79
2.04
53.75
93.95
120.56
134.25
137.16
131.59
119.38
102.05
81.39
59.78
40.07
24.64
14.52
8.99
5.74
2.1
-3.85
-12.48
-22.58
-32.11
-39.24
-43.32
-45.21
-47.08
-51.6
-61.23
-77.38
-99.83
-126.32
-150.0
-150.0
-150.0
-150.0
-141.6
-95.58
-38.59
20.9
74.36
115.64
142.19
150.0
150.0
150.0
138.43
121.83
101.54
79.18
57.44
39.44
27.61
22.51
22.58
24.82
26.2
24.82
20.37
13.84
6.5
-0.92
-8.73
-18.16
-30.78
-48.03
-70.73
-98.77
-130.67
-150.0
-150.0
-150.0
-150.0
-150.0
-150.0
-122.87
-64.06
-0.33
61.86
116.72
150.0
150.0
150.0
150.0
150.0
150.0
141.32
113.62
87.14
64.25
46.33
33.41
24.11
16.17
7.39
-3.43
-16.05
-29.09
-40.92
-50.62
-58.68
-66.99
-78.22
-94.87
-118.09
-146.83
-150.0
-150.0
-150.0
-150.0
-150.0
-150.0
-116.46
-59.57
-2.83
47.89
88.98
119.25
139.17
149.97
150.0
148.61
138.43
123.83
107.13
91.08
78.12
69.51
64.9
62.73
61.09
58.8
55.78
52.82
50.76
49.53
47.72
42.83
32.03
12.99
-15.23
-51.47
-92.13
-131.21
-150.0
-150.0
-150.0
-136.99
-88.75
-30.24
29.12
81.28
121.5
148.88
150.0
150.0
150.0
150.0
150.0
147.16
129.36
111.1
95.5
84.68
78.85
76.25
74.13
70.14
63.53
55.48
48.29
44.05
43.22
44.08
43.17
36.53
21.12
-4.2
-38.23
-77.51
-116.69
-149.21
-150.0
-150.0
-147.4
-106.75
-52.46
7.0
63.07
109.57
143.84
150.0
150.0
150.0
150.0
150.0
144.45
117.23
86.85
57.1
31.02
9.84
-7.22
-22.15
-36.92
-52.48
-68.31
-82.9
-94.69
-103.02
-108.7
-113.89
-121.38
-133.82
-150.0
-150.0
-150.0
-150.0
-150.0
-150.0
-150.0
-150.0
-150.0
-150.0
-105.04
-48.04
-0.42
34.73
57.6
70.33
75.23
73.77
66.67
54.79
39.97
25.21
13.84
8.19
8.49
12.69
17.22
18.6
14.75
5.61
-7.09
-20.95
-34.07
-45.9
-57.4
-70.57
-87.52
-109.4
-135.49
-150.0
-150.0
-150.0
-150.0
-150.0
-146.29
-97.26
-39.19
22.2
81.45
133.95
150.0
150.0
150.0
150.0
150.0
150.0
150.0
150.0
141.79
121.22
104.24
90.99
80.22
69.77
57.35
41.71
23.09
3.12
-16.02
-32.79
-47.05
-60.27
-74.97
-93.68
-117.7
-146.1
-150.0
-150.0
-150.0
-150.0
-150.0
-150.0
-101.2
-41.73
18.98
75.03
122.05
150.0
150.0
150.0
150.0
150.0
150.0
150.0
137.18
119.83
106.36
98.12
94.58
93.31
90.86
84.17
71.9
54.81
35.18
15.61
-2.2
-18.07
-33.23
-49.61
-69.14
-93.02
-121.14
-150.0
-150.0
-150.0
-150.0
-150.0
-150.0
-119.87
-60.01
2.87
60.42
106.59
138.62
150.0
150.0
150.0
149.86
133.04
110.98
85.57
59.76
37.07
20.45
11.1
7.99
8.28
8.69
6.85
2.12
-4.45
-11.11
-16.59
-20.92
-25.52
-32.77
-45.06
-64.11
-90.3
-122.24
-150.0
-150.0
-150.0
-150.0
-150.0
-150.0
-131.32
-72.07
-9.5
48.2
94.6
126.22
142.63
145.73
138.54
124.16
105.34
84.47
63.88
45.86
32.3
24.02
20.29
18.94
17.24
13.01
5.44
-4.79
-16.03
-26.74
-36.32
-45.57
-56.61
-72.17
-94.52
-124.18
-150.0
-150.0
-150.0
-150.0
-150.0
-150.0
-150.0
-97.14
-35.74
24.15
77.91
122.52
150.0
150.0
150.0
150.0
150.0
150.0
140.76
123.38
109.7
100.33
93.93
87.89
79.38
66.58
49.46
29.62
9.66
-8.09
-22.45
-33.97
-44.65
-57.36
-74.87
-98.74
-128.35
-150.0
-150.0
-150.0
-150.0
-150.0
-150.0
-102.92
-44.43
12.71
61.82
99.16
123.99
137.6
141.9
138.4
128.01
111.61
90.93
68.87
49.04
34.54
26.65
24.17
23.96
22.41
17.16
8.1
-2.77
-12.48
-18.79
-21.43
-22.33
-24.98
-33.11
-49.4
-74.41
-105.93
-139.18
-150.0
-150.0
-150.0
-150.0
-128.04
-77.96
-21.79
33.18
80.99
117.99
142.94
150.0
150.0
150.0
143.95
127.84
108.93
89.65
72.58
59.7
51.7
47.55
45.0
41.46
35.34
26.62
16.79
8.0
1.79
-1.77
-4.26
-8.3
-16.65
-31.26
-52.48
-78.61
-105.83
-128.57
-140.52
-136.33
-113.45
-73.49
-22.24
31.93
80.6
117.9
141.74
150.0
150.0
150.0
142.63
128.74
110.49
89.26
67.71
48.94
35.18
26.74
21.83
17.45
10.79
0.46
-13.15
-28.3
-42.98
-56.0
-67.49
-78.88
-92.27
-109.64
-131.93
-150.0
-150.0
-150.0
-150.0
-150.0
-150.0
-150.0
-121.95
-61.67
2.88
65.51
120.52
150.0
150.0
150.0
150.0
150.0
150.0
135.31
109.94
88.56
73.11
63.87
59.38
56.84
53.13
46.06
35.2
21.91
8.36
-3.73
-14.08
-24.04
-36.0
-52.41
-74.83
-103.08
-134.82
-150.0
-150.0
-150.0
-150.0
-150.0
-121.44
-68.63
-14.45
33.92
72.51
100.89
121.09
135.48
145.12
149.25
146.2
134.96
116.34
93.14
69.08
47.39
29.54
15.16
2.87
-8.41
-18.54
-26.11
-29.26
-26.94
-19.95
-11.13
-4.72
-5.17
-15.87
-37.97
-69.75
-106.43
-140.85
-150.0
-150.0
-150.0
-119.74
-67.06
-6.35
53.31
104.57
143.3
150.0
150.0
150.0
150.0
150.0
150.0
130.56
104.82
79.81
58.73
43.35
33.31
26.45
19.99
11.83
1.48
-10.05
-20.97
-29.9
-36.63
-42.37
-49.22
-59.42
-74.56
-95.05
-119.65
-145.39
-150.0
-150.0
-150.0
-150.0
-126.7
-76.69
-19.19
37.92
87.93
126.97
150.0
150.0
150.0
150.0
150.0
150.0
143.65
117.94
91.02
66.93
48.35
35.54
26.51
18.26
8.37
-3.87
-17.29
-29.69
-39.08
-44.88
-48.25
-51.73
-58.35
-70.68
-90.07
-116.09
-146.15
-150.0
-150.0
-150.0
-150.0
-150.0
-116.07
-58.05
0.45
51.07
88.8
112.79
125.38
130.02
129.35
124.26
114.45
99.65
80.89
60.76
42.59
29.06
20.92
16.67
13.29
7.85
-1.24
-13.61
-27.39
-40.5
-51.84
-61.85
-72.38
-85.72
-103.62
-126.51
-150.0
-150.0
-150.0
-150.0
-150.0
-150.0
-150.0
-111.51
-53.67
5.07
57.88
99.97
129.29
146.17
150.0
149.7
140.06
124.8
105.64
85.01
65.9
51.13
42.18
38.43
37.29
35.23
29.32
18.37
3.09
-14.47
-32.09
-48.38
-63.21
-77.64
-93.47
-112.8
-137.18
-150.0
-150.0
-150.0
-150.0
-150.0
-150.0
-150.0
-150.0
-150.0
-101.2
-46.74
4.12
48.17
82.9
106.6
118.59
119.49
111.12
96.35
78.78
62.35
50.76
46.75
51.11
62.22
76.41
89.19
96.88
97.94
93.2
85.03
76.1
68.09
61.22
54.42
45.96
34.03
17.21
-5.08
-32.05
-60.96
-87.03
-103.95
-105.58
-88.07
-51.69
-1.38
54.52
106.88
148.6
150.0
150.0
150.0
150.0
150.0
150.0
150.0
128.87
106.0
84.36
66.8
54.92
48.39
45.16
42.45
37.91
30.47
20.58
9.63
-0.89
-10.1
-18.14
-26.09
-35.56
-48.28
-65.73
-88.83
-117.4
-149.63
-150.0
-150.0
-150.0
-150.0
-150.0
-148.04
-89.92
-26.35
33.77
83.23
118.12
137.89
144.5
140.88
129.82
113.57
94.14
73.92
55.78
42.54
35.93
35.67
39.3
43.15
43.87
39.77
31.2
19.91
7.79
-4.34
-17.18
-32.69
-53.15
-80.25
-114.22
-150.0
-150.0
-150.0
-150.0
-150.0
-150.0
-150.0
-150.0
-107.42
-49.55
4.8
51.9
89.68
117.31
134.63
141.94
139.99
130.16
114.69
96.5
78.8
64.32
54.47
48.74
45.05
40.6
33.26
22.58
9.98
-1.82
-10.01
-12.89
-10.52
-4.84
0.74
2.16
-4.01
-19.23
-41.67
-65.94
-84.13
-88.2
-72.94
-38.14
11.08
66.09
117.87
150.0
150.0
150.0
150.0
150.0
150.0
150.0
150.0
150.0
133.42
104.86
81.55
65.33
55.3
48.79
42.88
36.06
28.71
22.67
19.75
20.4
23.08
24.7
21.84
11.92
-6.15
-31.79
-62.81
-95.34
-123.88
-141.89
-143.45
-125.47
-89.52
-41.99
7.83
51.04
82.02
99.73
106.57
106.01
100.5
90.67
76.18
57.25
35.61
14.31
-3.53
-16.03
-23.37
-27.52
-31.31
-37.1
-45.97
-57.39
-69.6
-80.57
-88.97
-94.88
-99.92
-106.82
-118.43
-136.83
-150.0
-150.0
-150.0
-150.0
-150.0
-150.0
-150.0
-150.0
-150.0
-93.3
-32.13
21.3
63.09
92.66
111.82
123.11
128.46
128.69
124.01
114.89
102.75
89.84
78.5
70.03
64.05
58.67
51.51
40.9
26.79
10.74
-4.77
-17.49
-26.51
-32.56
-37.73
-44.7
-56.01
-73.32
-96.79
-124.62
-150.0
-150.0
-150.0
-150.0
-150.0
-104.67
-47.58
11.86
64.83
105.27
130.89
142.7
143.34
135.53
121.29
102.14
79.87
57.03
36.71
21.59
12.9
9.71
9.31
8.24
3.64
-5.67
-19.1
-34.71
-50.37
-64.84
-78.29
-92.31
-109.08
-130.32
-150.0
-150.0
-150.0
-150.0
-150.0
-150.0
-150.0
-150.0
-104.08
-46.28
13.11
69.61
118.93
150.0
150.0
150.0
150.0
150.0
150.0
128.19
108.16
93.33
84.84
82.12
83.15
85.05
84.98
81.06
72.96
61.68
48.76
35.31
21.29
5.51
-13.8
-38.06
-67.32
-99.53
-130.4
-150.0
-150.0
-150.0
-127.17
-81.2
-24.06
35.71
89.84
132.46
150.0
150.0
150.0
150.0
150.0
146.43
124.4
100.85
79.4
63.5
55.08
53.55
55.88
57.76
55.39
46.86
32.81
15.82
-0.86
-14.82
-25.49
-34.34
-44.28
-58.67
-80.07
-109.05
-143.35
-150.0
-150.0
-150.0
-150.0
-150.0
-136.1
-74.78
-8.83
52.81
102.89
137.1
150.0
150.0
143.73
122.69
96.14
67.83
41.29
19.49
4.45
-3.29
-4.88
-2.89
-0.46
-0.17
-3.31
-9.63
-17.94
-26.92
-36.1
-46.28
-59.42
-77.94
-103.55
-136.03
-150.0
-150.0
-150.0
-150.0
-150.0
-150.0
-150.0
-94.27
-31.63
28.3
80.32
121.12
149.22
150.0
150.0
150.0
150.0
134.51
114.64
93.49
72.39
52.3
33.67
16.43
0.31
-14.76
-28.31
-39.37
-46.99
-50.97
-52.36
-53.59
-57.93
-68.55
-87.29
-113.48
-143.36
-150.0
-150.0
-150.0
-150.0
-128.97
-74.51
-11.78
51.78
109.79
150.0
150.0
150.0
150.0
150.0
150.0
150.0
150.0
150.0
133.29
116.07
103.93
95.52
88.17
79.07
66.58
50.96
