2013-02-23 09:50:16
64.0
-0.0
-0.0
-0.0
-0.0
-0.0
-0.0
-0.0
-0.0
-0.0
-0.0
0.0
0.01
0.01
-0.0
-0.03
-0.05
-0.05
0.0
0.13
0.36
0.66
1.01
1.37
1.72
2.06
2.4
2.79
3.24
3.8
4.42
5.06
5.66
6.2
6.68
7.15
7.68
8.31
9.14
10.09
11.04
11.88
12.56
13.14
13.76
14.65
15.96
17.91
20.32
22.9
25.38
27.58
29.57
31.68
34.32
37.81
42.54
48.15
54.1
59.83
64.97
69.58
74.14
79.34
85.71
93.76
103.0
112.62
121.73
129.77
136.75
143.3
150.0
150.0
150.0
150.0
150.0
150.0
150.0
150.0
150.0
150.0
150.0
132.76
80.05
23.07
-34.94
-92.44
-149.16
-150.0
-150.0
-150.0
-150.0
-150.0
-150.0
-150.0
-150.0
-150.0
-150.0
-150.0
-150.0
-150.0
-150.0
-150.0
-150.0
-150.0
-150.0
-150.0
-150.0
-102.95
-52.37
-5.9
35.58
71.43
101.35
125.5
144.38
150.0
150.0
150.0
150.0
150.0
150.0
150.0
150.0
150.0
150.0
150.0
148.81
141.3
133.69
126.02
118.33
110.69
103.16
95.83
88.72
81.85
75.24
68.88
62.79
57.0
51.54
46.44
41.69
37.27
33.16
29.31
25.72
22.37
19.3
16.52
14.05
11.89
10.0
8.32
6.8
5.39
4.1
2.95
1.99
1.27
0.76
0.4
0.06
-0.36
-0.94
-1.65
-2.37
-2.93
-3.2
-3.18
-3.02
-2.95
-3.21
-3.92
-5.0
-6.19
-7.15
-7.62
-7.55
-7.17
-6.87
-7.06
-7.99
-9.56
-11.42
-13.09
-14.16
-14.45
-14.1
-13.48
-13.05
-13.34
-14.84
-17.8
-21.91
-26.06
-28.34
-26.69
-19.73
-7.79
6.98
21.16
31.52
36.33
35.91
32.24
27.72
24.1
21.89
20.72
19.85
18.82
17.48
15.8
13.65
10.78
7.3
3.91
1.95
2.8
7.06
13.97
21.49
27.23
29.52
28.18
24.48
20.33
17.29
15.86
15.6
15.65
15.43
14.87
14.19
13.44
12.31
10.12
6.39
1.27
-4.55
-9.99
-14.09
-16.36
-16.92
-16.39
-15.59
-15.21
-15.49
-16.21
-16.83
-16.8
-15.8
-13.87
-11.42
-8.99
-7.03
-5.69
-4.94
-4.51
-4.13
-3.56
-2.75
-1.79
-0.92
-0.42
-0.55
-1.39
-2.89
-4.81
-6.72
-8.14
-8.61
-7.88
-6.01
-3.4
-0.71
1.46
2.67
2.79
1.85
0.06
-2.37
-5.06
-7.56
-9.33
-9.99
-9.43
-7.94
-6.09
-4.51
-3.63
-3.43
-3.55
-3.43
-2.56
-0.6
2.46
6.37
10.72
14.63
17.45
18.86
18.92
18.01
16.64
15.23
13.9
12.48
10.55
7.67
3.43
-2.33
-9.41
-17.16
-24.58
-30.65
-34.61
-36.18
-35.56
-33.32
-30.22
-27.05
-24.59
-23.58
-24.51
-27.49
-32.04
-37.08
-41.22
-43.19
-42.21
-38.14
-31.47
-23.0
-13.72
-4.54
3.73
10.53
15.5
18.62
20.15
20.62
20.62
20.72
21.28
22.37
23.85
25.47
26.98
28.33
29.7
31.39
33.69
36.69
40.25
43.97
47.3
49.75
51.04
51.12
50.16
48.38
45.9
42.68
38.53
33.27
26.85
19.51
11.79
4.5
-1.48
-5.33
-6.59
-5.18
-1.55
3.45
8.69
12.96
15.21
14.7
11.11
4.58
-4.26
-14.39
-24.5
-33.27
-39.58
-42.72
-42.52
-39.28
-33.67
-26.57
-18.89
-11.5
-5.11
-0.21
2.95
4.38
4.33
3.15
1.25
-1.04
-3.44
-5.74
-7.63
-8.82
-9.0
-8.1
-6.33
-4.19
-2.32
-1.18
-0.94
-1.35
-1.99
-2.53
-2.91
-3.42
-4.45
-6.22
-8.59
-11.04
-12.94
-13.91
-14.03
-13.79
-13.85
-14.62
-16.07
-17.76
-19.17
-19.93
-20.09
-19.97
-20.0
-20.49
-21.49
-22.89
-24.48
-26.04
-27.32
-28.08
-28.04
-26.91
-24.5
-20.74
-15.7
-9.58
-2.72
4.39
11.24
17.32
22.36
26.36
29.58
32.35
34.88
37.11
38.76
39.53
39.3
38.26
36.79
35.37
34.34
33.89
34.15
35.19
37.17
40.12
43.82
47.69
50.85
52.38
51.72
48.85
44.33
39.08
33.99
29.69
26.31
23.58
20.99
18.08
14.61
10.67
6.57
2.67
-0.82
-4.07
-7.47
-11.53
-16.53
-22.37
-28.54
-34.38
-39.35
-43.2
-46.0
-47.98
-49.36
-50.17
-50.35
-49.79
-48.55
-46.85
-44.97
-43.17
-41.45
-39.67
-37.66
-35.32
-32.73
-30.08
-27.58
-25.33
-23.34
-21.45
-19.48
-17.19
-14.35
-10.85
-6.77
-2.44
1.65
5.02
7.37
8.72
9.31
9.38
9.04
8.19
6.69
4.58
2.15
-0.12
-1.72
-2.35
-2.07
-1.25
-0.42
-0.09
-0.51
-1.69
-3.35
-5.1
-6.65
-7.82
-8.65
-9.2
-9.51
-9.45
-8.88
-7.6
-5.55
-2.72
0.79
4.76
8.87
12.67
15.74
17.79
18.86
19.31
19.75
20.76
22.7
25.56
28.83
31.67
33.07
32.3
29.32
25.07
21.5
21.06
25.86
36.72
52.59
70.55
86.53
96.48
97.64
89.35
73.22
52.53
31.11
12.23
-2.25
-12.02
-17.89
-21.14
-22.83
-23.67
-24.14
-24.74
-26.16
-29.06
-33.74
-39.87
-46.5
-52.35
-56.41
-58.27
-58.21
-56.9
-54.98
-52.71
-49.89
-46.16
-41.29
-35.52
-29.5
-24.06
-19.86
-17.17
-15.79
-15.18
-14.72
-13.86
-12.27
-9.89
-6.9
-3.62
-0.43
2.44
4.96
7.27
9.51
11.68
13.55
14.76
15.0
14.21
12.59
10.49
8.24
5.94
3.54
0.93
-1.94
-4.97
-7.94
-10.65
-12.93
-14.71
-16.01
-16.88
-17.47
-17.99
-18.74
-20.02
-21.94
-24.36
-26.82
-28.7
-29.32
-28.19
-25.05
-19.96
-13.2
-5.27
3.2
11.51
19.03
25.35
30.33
34.17
37.17
39.7
41.94
43.88
45.33
46.06
45.92
44.95
43.36
41.5
39.74
38.37
37.53
37.13
36.85
36.3
35.12
33.23
30.78
28.07
25.4
22.9
20.54
18.18
15.67
12.89
9.74
6.08
1.83
-2.99
-8.22
-13.55
-18.66
-23.37
-27.71
-31.91
-36.26
-40.96
-46.01
-51.22
-56.27
-60.78
-64.46
-67.16
-68.95
-70.01
-70.52
-70.46
-69.59
-67.5
-63.87
-58.84
-52.93
-46.96
-41.66
-37.42
-34.22
-31.74
-29.46
-26.78
-23.05
-17.58
-9.93
-0.19
10.84
21.73
30.91
37.26
40.59
41.6
41.43
41.01
40.67
40.14
39.01
37.31
35.81
35.77
38.17
42.99
48.75
53.05
53.57
49.24
40.87
30.78
21.71
15.6
12.85
12.49
13.0
13.12
12.35
10.75
8.48
5.48
1.53
-3.44
-9.0
-14.24
-18.03
-19.44
-18.08
-14.2
-8.64
-2.51
3.04
7.12
9.34
9.89
9.53
9.2
9.68
11.19
13.37
15.5
16.9
17.32
16.94
16.22
15.6
15.24
14.96
14.41
13.26
11.35
8.8
5.85
2.79
-0.18
-2.99
-5.68
-8.29
-10.77
-13.05
-14.98
-16.53
-17.83
-19.04
-20.36
-21.83
-23.32
-24.64
-25.59
-26.06
-26.06
-25.62
-24.75
-23.47
-21.84
-20.15
-18.89
-18.64
-19.84
-22.55
-26.32
-30.26
-33.33
-34.6
-33.59
-30.24
-24.91
-18.18
-10.7
-3.11
4.06
10.41
15.72
19.91
23.08
25.4
27.05
28.24
29.18
30.14
31.34
32.9
34.7
36.48
37.92
38.88
39.47
39.9
40.41
40.97
41.36
41.29
40.65
39.6
38.49
37.68
37.34
37.33
37.41
37.37
37.23
37.18
37.42
37.87
38.18
37.72
35.84
32.11
26.52
19.44
11.62
3.91
-3.0
-8.7
-13.25
-17.06
-20.67
-24.57
-28.96
-33.72
-38.43
-42.56
-45.53
-46.97
-46.72
-44.99
-42.3
-39.47
-37.34
-36.53
-37.28
-39.34
-42.15
-45.06
-47.52
-49.15
-49.71
-49.0
-46.91
-43.53
-39.17
-34.42
-29.85
-25.8
-22.28
-18.91
-15.34
-11.4
-7.36
-3.7
-0.97
0.63
1.3
1.56
2.04
3.24
5.32
8.08
11.07
13.73
15.71
16.99
17.86
18.75
19.94
21.34
22.47
22.66
21.38
18.5
14.4
9.91
6.01
3.58
3.16
4.84
8.32
13.01
18.28
23.59
28.62
33.17
36.98
39.74
41.05
40.69
38.76
35.73
32.29
29.06
26.44
24.47
22.88
21.33
19.57
17.54
15.4
13.31
11.46
9.86
8.41
6.91
5.15
2.98
0.33
-2.8
-6.36
-10.22
-14.13
-17.71
-20.45
-21.96
-22.11
-21.11
-19.45
-17.72
-16.4
-15.77
-15.84
-16.46
-17.4
-18.41
-19.31
-19.97
-20.38
-20.63
-20.88
-21.3
-21.9
-22.53
-22.92
-22.75
-21.82
-20.04
-17.51
-14.46
-11.17
-7.93
-5.04
-2.72
-1.11
-0.29
-0.19
-0.66
-1.46
-2.28
-2.82
-2.89
-2.41
-1.47
-0.27
0.99
2.17
3.26
4.35
5.55
6.95
8.56
10.34
12.24
14.12
15.71
16.52
16.0
13.76
9.84
4.87
-0.07
-3.89
-5.92
-6.21
-5.42
-4.46
-4.03
-4.38
-5.3
-6.42
-7.44
-8.22
-8.66
-8.6
-7.75
-5.85
-2.81
1.06
5.25
9.13
12.27
14.56
16.17
17.43
18.61
19.86
21.14
22.36
23.38
24.15
24.67
24.98
25.19
25.29
25.24
24.9
24.08
22.7
20.84
18.74
16.62
14.6
12.51
10.07
7.01
3.29
-0.84
-4.89
-8.33
-10.77
-12.06
-12.27
-11.66
-10.65
-9.72
-9.41
-10.26
-12.64
-16.71
-22.34
-29.06
-36.14
-42.74
-48.02
-51.29
-52.15
-50.49
-46.6
-40.98
-34.36
-27.47
-20.95
-15.18
-10.3
-6.21
-2.72
0.24
2.6
4.13
4.62
4.06
2.7
1.0
-0.6
-1.95
-3.24
-4.93
-7.42
-10.84
-14.94
-19.26
-23.36
-27.1
-30.59
-34.11
-37.86
-41.82
-45.8
-49.54
-52.79
-55.39
-57.22
-58.17
-58.23
-57.43
-55.95
-54.0
-51.75
-49.32
-46.75
-43.98
-40.77
-36.66
-30.97
-22.87
-11.76
2.45
19.19
37.24
55.12
71.49
85.45
96.56
104.63
109.52
111.03
109.1
104.0
96.47
87.61
78.51
69.96
62.24
55.24
48.77
42.8
37.56
33.33
30.22
28.0
26.15
24.11
21.54
18.47
15.12
11.71
8.3
4.66
0.55
-4.09
-8.97
-13.57
-17.33
-19.96
-21.54
-22.5
-23.42
-24.9
-27.41
-31.23
-36.37
-42.55
-49.13
-55.29
-60.22
-63.38
-64.62
-64.14
-62.33
-59.56
-56.11
-52.17
-47.95
-43.63
-39.44
-35.53
-31.99
-28.83
-25.99
-23.32
-20.66
-17.88
-14.93
-11.82
-8.67
-5.63
-2.8
-0.26
1.98
3.94
5.64
7.16
8.52
9.8
11.15
12.74
14.81
17.54
21.03
25.11
29.43
33.43
36.58
38.53
39.25
39.05
38.45
37.87
37.47
37.08
36.34
34.95
32.99
30.94
29.5
29.28
30.49
32.86
35.86
38.95
41.85
44.47
46.74
48.42
49.07
48.25
45.73
41.7
36.68
31.4
26.46
22.18
18.54
15.22
11.9
8.39
4.78
1.48
-0.92
-1.82
-0.89
1.76
5.55
9.55
12.79
14.57
14.68
13.42
11.46
9.53
8.11
7.24
6.53
5.43
3.45
0.36
-3.81
-8.84
-14.45
-20.31
-26.1
-31.5
-36.38
-40.99
-46.01
-52.33
-60.55
-70.48
-80.98
-90.25
-96.49
-98.69
-96.93
-92.23
-86.02
-79.45
-73.05
-66.74
-60.17
-53.1
-45.54
-37.8
-30.22
-23.04
-16.31
-9.89
-3.59
2.79
9.33
16.05
22.95
30.0
37.22
44.54
51.82
58.8
65.12
70.47
74.73
78.07
80.81
83.21
85.18
86.19
85.39
82.02
75.77
67.06
56.99
46.91
38.0
30.93
25.8
22.31
19.98
18.42
17.3
16.35
15.25
13.65
11.26
8.04
4.26
0.49
-2.57
-4.4
-4.86
-4.29
-3.36
-2.9
-3.45
-5.13
-7.53
-9.93
-11.58
-12.04
-11.26
-9.57
-7.46
-5.42
-3.86
-3.09
-3.37
-4.74
-7.07
-10.0
-13.01
-15.68
-17.77
-19.27
-20.37
-21.3
-22.23
-23.32
-24.71
-26.51
-28.79
-31.48
-34.37
-37.24
-39.94
-42.44
-44.85
-47.21
-49.52
-51.71
-53.78
-55.85
-58.12
-60.78
-63.75
-66.6
-68.63
-69.07
-67.42
-63.59
-57.9
-50.87
-42.92
-34.23
-24.78
-14.52
-3.53
7.87
19.18
29.82
39.26
47.09
53.05
57.01
58.98
59.12
57.84
55.76
53.66
52.4
52.7
54.99
59.31
65.27
72.21
79.32
85.82
91.13
94.9
96.95
97.23
95.81
92.83
88.49
82.97
76.43
68.99
60.86
52.33
43.85
35.92
28.94
23.06
18.14
13.8
9.57
5.03
0.01
-5.33
-10.5
-14.84
-17.76
-19.01
-18.72
-17.39
-15.59
-13.79
-12.12
-10.57
-9.11
-7.85
-7.04
-6.82
-7.1
-7.47
-7.4
-6.49
-4.6
-2.01
0.83
3.4
5.34
6.58
7.4
8.35
10.17
13.45
18.34
24.17
29.42
31.97
29.76
21.61
7.8
-9.77
-28.06
-43.8
-54.55
-59.44
-59.42
-56.85
-54.75
-55.91
-62.04
-73.42
-88.79
-105.81
-121.71
-134.02
-141.2
-142.76
-139.14
-131.29
-120.35
-107.36
-93.23
-78.67
-64.22
-50.17
-36.58
-23.43
-10.78
1.09
11.8
21.01
28.67
35.05
40.58
45.65
50.41
54.82
58.85
62.59
66.32
70.31
74.63
78.95
82.66
85.09
85.91
85.19
83.37
80.97
78.34
75.56
72.58
69.35
65.89
62.29
58.55
54.68
50.67
46.6
42.56
38.47
33.99
28.52
21.4
12.12
0.51
-13.15
-28.26
-43.96
-59.21
-72.93
-84.11
-92.16
-97.07
-99.45
-100.37
-100.95
-102.01
-103.83
-106.23
-108.68
-110.54
-111.26
-110.55
-108.46
-105.37
-101.89
-98.59
-95.79
-93.46
-91.29
-88.87
-85.94
-82.49
-78.66
-74.59
-70.12
-64.95
-58.71
-51.35
-43.22
-34.92
-26.92
-19.3
-11.74
-3.73
5.01
14.51
24.57
35.11
46.28
58.4
71.55
85.36
98.96
111.24
121.14
127.89
131.02
130.27
125.61
117.4
106.44
93.82
80.66
67.89
56.11
45.83
37.61
32.06
29.71
30.65
34.38
39.8
45.47
49.97
52.26
51.85
48.89
44.04
38.25
32.5
27.4
23.15
19.53
16.23
13.14
10.39
8.26
6.78
5.62
4.07
1.38
-2.85
-8.36
-14.33
-19.68
-23.47
-25.24
-24.99
-23.14
-20.24
-16.91
-13.75
-11.37
-10.49
-11.82
-15.89
-22.86
-32.37
-43.61
-55.5
-67.01
-77.32
-85.92
-92.49
-96.92
-99.13
-99.23
-97.47
-94.29
-90.29
-85.99
-81.78
-77.75
-73.89
-70.1
-66.38
-62.72
-59.03
-55.09
-50.55
-45.15
-38.82
-31.7
-24.05
-15.97
-7.33
2.21
12.93
24.82
37.48
50.2
62.11
72.41
80.46
85.82
88.35
88.16
85.79
82.12
78.19
74.91
72.69
71.35
70.19
68.29
64.93
59.79
53.12
45.54
37.82
30.66
24.58
19.83
16.56
14.77
14.45
15.4
17.27
19.55
21.67
23.18
23.92
23.95
23.41
22.39
20.79
18.5
15.55
12.21
8.97
6.26
4.24
2.61
0.8
-1.74
-5.22
-9.38
-13.69
-17.57
-20.64
-22.78
-24.04
-24.51
-24.22
-23.25
-21.71
-19.81
-17.84
-16.14
-15.0
-14.56
-14.78
-15.37
-15.89
-15.9
-15.33
-14.54
-14.35
-15.69
-19.17
-24.71
-31.52
-38.35
-44.02
-47.77
-49.36
-49.0
-47.13
-44.23
-40.76
-37.17
-33.86
-31.1
-29.01
-27.54
-26.52
-25.71
-24.86
-23.75
-22.24
-20.16
-17.37
-13.71
-9.1
-3.55
2.74
9.49
16.4
23.24
29.9
36.36
42.54
48.27
53.23
57.15
59.95
61.8
63.06
63.94
64.34
63.82
61.77
57.84
52.04
44.83
36.89
28.81
20.95
13.39
6.1
-0.87
-7.35
-13.03
-17.56
-20.66
-22.1
-21.69
-19.27
-14.78
-8.42
-0.78
7.23
14.61
20.57
24.75
27.32
28.74
29.48
29.82
29.75
29.14
27.94
26.32
24.67
23.4
22.78
22.76
22.96
22.79
21.61
19.06
15.18
10.47
5.67
1.48
-1.92
-4.87
-8.14
-12.59
-18.79
-26.84
-36.33
-46.52
-56.5
-65.49
-72.95
-78.77
-83.26
-87.05
-90.89
-95.33
-100.44
-105.64
-109.68
-110.92
-107.83
-99.56
-86.44
-70.1
-53.0
-37.68
-25.87
-17.96
-13.1
-9.81
-6.76
-3.29
0.5
4.15
7.37
10.39
14.09
19.71
28.42
40.87
56.88
75.3
94.37
112.13
126.99
138.01
144.97
148.11
147.89
144.71
138.98
131.13
121.73
111.42
100.79
90.34
80.36
71.16
63.0
56.21
51.01
47.41
45.03
43.14
40.88
37.48
32.69
26.86
21.0
16.34
13.97
14.32
17.04
21.11
25.27
28.56
30.56
31.39
31.5
31.29
30.89
30.12
28.64
26.09
22.18
16.63
9.13
-0.65
-12.9
-27.47
-43.84
-61.06
-78.02
-93.58
-106.75
-116.84
-123.51
-126.9
-127.54
-126.29
-123.95
-121.06
-117.76
-113.95
-109.65
-105.31
-101.81
-100.16
-100.97
-104.07
-108.58
-113.24
-116.95
-119.11
-119.68
-118.93
-117.05
-113.96
-109.25
-102.39
-93.07
-81.35
-67.79
-53.29
-38.85
-25.32
-13.22
-2.83
5.8
12.59
17.44
20.21
20.86
19.61
17.02
13.91
11.2
9.77
10.25
12.98
18.04
25.24
34.27
44.69
55.91
67.25
78.0
87.54
95.36
101.23
105.06
106.99
107.35
106.66
105.58
104.79
104.79
105.6
106.68
107.03
105.55
101.46
94.68
85.84
75.99
66.23
57.21
49.05
41.39
33.75
25.83
17.69
9.76
2.59
-3.45
-8.38
-12.68
-17.05
-22.08
-27.97
-34.33
-40.4
-45.36
-48.66
-50.19
-50.21
-49.14
-47.26
-44.68
-41.38
-37.44
-33.11
-28.84
-25.15
-22.43
-20.89
-20.49
-21.07
-22.3
-23.78
-25.13
-25.95
-25.96
-25.09
-23.45
-21.41
-19.42
-17.95
-17.29
-17.5
-18.31
-19.18
-19.38
-18.21
-15.06
-9.73
-2.41
6.24
15.25
23.57
30.33
35.03
37.6
38.38
38.04
37.38
37.27
38.42
41.27
45.82
51.56
57.55
62.75
66.31
67.95
67.89
66.7
64.87
62.56
59.66
56.0
51.6
46.76
41.96
37.57
33.76
30.49
27.63
25.14
23.02
21.26
19.68
17.95
15.69
12.56
8.42
3.29
-2.58
-8.8
-14.82
-20.04
-23.88
-25.92
-26.04
-24.39
-21.34
-17.29
-12.56
-7.29
-1.53
4.54
10.39
15.01
17.11
15.52
9.77
0.27
-11.68
-24.5
-36.85
-47.99
-57.82
-66.45
-73.85
-79.7
-83.52
-84.95
-84.06
-81.32
-77.48
-73.26
-69.24
-65.77
-63.14
-61.55
-61.11
-61.78
-63.22
-64.84
-65.91
-65.81
-64.27
-61.46
-58.01
-54.7
-52.23
-50.86
-50.36
-49.99
-48.72
-45.59
-39.97
-31.8
-21.53
-9.95
2.07
13.87
25.02
35.42
45.04
53.88
61.77
68.5
73.8
77.6
80.05
81.52
82.39
82.87
82.92
82.36
81.15
79.63
78.54
78.78
80.88
84.71
89.34
93.47
95.93
96.15
94.23
90.73
86.24
81.06
75.26
68.8
61.85
54.75
47.97
41.82
36.3
31.18
26.11
20.95
15.78
11.03
7.27
4.98
4.34
5.13
6.72
8.3
9.19
9.02
7.79
5.67
2.75
-1.2
-6.7
-14.26
-24.14
-36.09
-49.42
-63.17
-76.37
-88.11
-97.67
-104.49
-108.26
-109.01
-107.17
-103.47
-98.69
-93.46
-88.06
-82.54
-76.93
-71.44
-66.5
-62.55
-59.88
-58.41
-57.8
-57.58
-57.45
-57.38
-57.53
-58.05
-58.88
-59.79
-60.54
-61.05
-61.46
-61.94
-62.41
-62.47
-61.49
-59.04
-55.16
-50.53
-46.14
-42.95
-41.5
-41.75
-43.08
-44.55
-45.01
-43.27
-38.23
-29.18
-15.99
0.77
19.85
39.59
58.37
74.95
88.65
99.34
107.29
112.94
116.76
119.13
120.27
120.21
118.88
116.13
111.96
106.47
100.01
93.04
86.06
79.54
73.74
68.7
64.3
60.29
56.51
52.87
49.44
46.32
43.55
41.02
38.44
35.36
31.28
25.77
18.65
10.16
0.96
-7.99
-15.77
-21.71
-25.58
-27.51
-27.79
-26.68
-24.38
-21.13
-17.32
-13.56
-10.53
-8.74
-8.33
-9.12
-10.72
-12.72
-14.86
-17.13
-19.74
-23.15
-27.88
-34.34
-42.57
-52.18
-62.5
-72.83
-82.64
-91.69
-99.8
-106.69
-111.95
-115.17
-116.2
-115.32
-113.19
-110.58
-108.16
-106.3
-105.12
-104.49
-104.04
-103.1
-100.63
-95.2
-85.28
-69.6
-47.69
-20.25
10.79
42.66
72.4
97.59
116.93
130.22
138.1
141.52
141.35
138.35
133.24
126.91
120.41
114.68
110.25
107.01
104.34
101.45
97.81
93.44
88.79
84.56
81.28
79.1
77.79
76.79
75.46
73.14
69.35
63.74
56.24
47.05
36.77
26.22
16.23
7.29
-0.68
-8.29
-16.31
-25.27
-35.19
-45.46
-55.2
-63.54
-70.04
-74.76
-78.09
-80.57
-82.55
-84.24
-85.66
-86.88
-87.98
-88.99
-89.82
-90.23
-89.94
-88.78
-86.81
-84.32
-81.68
-79.17
-76.91
-74.78
-72.57
-70.05
-67.02
-63.31
-58.8
-53.39
-47.02
-39.69
-31.54
-22.75
-13.65
-4.59
4.02
11.87
18.85
25.05
30.69
35.99
41.04
45.74
49.83
53.04
55.13
55.87
54.93
51.8
46.0
37.36
26.46
14.86
4.94
-0.69
-0.05
7.48
20.85
37.61
54.68
69.27
79.57
84.98
85.99
83.68
79.28
73.87
68.23
62.89
58.19
54.35
51.42
49.18
47.23
44.98
41.92
37.78
32.67
27.01
21.28
15.89
10.95
6.36
1.89
-2.57
-7.08
-11.57
-16.01
-20.43
-24.96
-29.77
-34.91
-40.17
-45.02
-48.7
-50.45
-49.87
-47.11
-42.78
-37.77
-32.85
-28.45
-24.66
-21.44
-18.8
-16.89
-15.88
-15.77
-16.28
-16.86
-16.89
-15.94
-13.87
-10.9
-7.55
-4.53
-2.49
-1.89
-2.84
-5.12
-8.38
-12.32
-16.75
-21.63
-26.84
-31.98
-36.45
-39.53
-40.68
-39.72
-36.88
-32.67
-27.76
-22.8
-18.35
-14.89
-12.69
-11.77
-11.87
-12.45
-12.86
-12.47
-10.85
-7.79
-3.35
2.15
8.28
14.57
20.71
26.58
32.24
37.81
43.31
48.57
53.29
57.09
59.71
61.1
61.41
61.0
60.35
59.89
59.88
60.37
61.16
61.93
62.4
62.5
62.28
61.86
61.29
60.44
59.15
57.35
55.11
52.65
50.14
47.54
44.58
40.96
36.45
30.97
24.53
16.97
7.92
-3.07
-16.36
-31.82
-48.74
-65.89
-81.81
-95.12
-104.84
-110.54
-112.31
-110.58
-105.98
-99.22
-91.0
-82.14
-73.54
-66.17
-60.84
-57.95
-57.38
-58.44
-60.17
-61.68
-62.43
-62.33
-61.59
-60.57
-59.6
-58.84
-58.32
-57.89
-57.32
-56.33
-54.73
-52.6
-50.29
-48.41
-47.57
-48.05
-49.65
-51.72
-53.42
-54.1
-53.53
-51.91
-49.76
-47.71
-46.3
-45.89
-46.45
-47.39
-47.39
-44.57
-36.94
-23.19
-3.27
21.34
48.13
74.37
98.0
118.02
134.29
146.98
150.0
150.0
150.0
150.0
150.0
145.74
137.22
128.75
120.65
112.84
105.23
97.77
90.49
83.43
76.54
69.69
62.76
55.62
48.18
40.44
32.48
24.64
17.38
11.23
6.52
3.08
0.22
-3.09
-7.83
-14.57
-23.18
-32.98
-43.05
-52.54
-60.87
-67.74
-72.95
-76.28
-77.46
-76.42
-73.39
-69.05
-64.33
-60.09
-56.82
-54.57
-52.98
-51.59
-50.14
-48.64
-47.37
-46.62
-46.49
-46.71
-46.73
-45.88
-43.72
-40.17
-35.6
-30.62
-25.82
-21.61
-18.1
-15.31
-13.23
-11.98
-11.72
-12.56
-14.4
-16.94
-19.78
-22.52
-24.82
-26.47
-27.35
-27.36
-26.34
-24.12
-20.53
-15.51
-9.07
-1.26
7.97
18.71
30.99
44.62
58.94
72.85
85.1
94.66
101.05
104.52
105.71
105.29
103.63
100.83
96.94
92.19
87.15
82.45
78.52
75.4
72.72
69.93
66.54
62.38
57.57
52.5
47.67
43.58
40.53
38.47
36.96
35.21
32.33
27.69
21.13
13.06
4.3
-4.24
-11.94
-18.68
-24.97
-31.77
-40.11
-50.66
-63.37
-77.3
-90.81
-101.96
-108.95
-110.62
-106.57
-97.26
-83.94
-68.44
-52.88
-39.28
-29.09
-22.96
-20.64
-21.17
-23.3
-25.85
-28.0
-29.46
-30.36
-31.14
-32.24
-33.88
-35.88
-37.63
-38.32
-37.32
-34.49
-30.28
-25.51
-20.98
-17.15
-14.15
-11.86
-10.22
-9.32
-9.36
-10.46
-12.63
-15.67
-19.38
-23.52
-27.83
-31.96
-35.45
-37.88
-39.02
-39.0
-38.19
-37.03
-35.66
-33.8
-30.76
-25.81
-18.47
-8.77
2.75
15.24
27.9
40.2
51.91
62.99
73.35
82.75
90.81
97.12
101.53
104.2
105.54
106.11
106.26
106.09
105.37
103.72
100.77
96.43
90.95
84.84
78.71
72.96
67.57
62.07
55.76
48.03
38.69
27.98
16.55
5.12
-5.64
-15.34
-23.83
-31.21
-37.77
-43.94
-50.31
-57.4
-65.56
-74.71
-84.27
-93.28
-100.6
-105.11
-106.08
-103.27
-96.97
-88.07
-77.77
-67.37
-57.87
-49.83
-43.29
-38.02
-33.69
-30.07
-27.08
-24.59
-22.41
-20.25
-17.73
-14.59
-10.73
-6.23
-1.31
3.75
8.66
13.2
17.23
20.76
23.83
26.47
28.58
29.91
30.2
29.39
27.72
25.67
23.73
22.17
20.96
19.88
18.69
17.31
15.79
14.27
12.84
11.48
10.07
8.59
7.14
6.06
5.88
7.18
10.46
16.05
23.97
33.92
45.37
57.57
69.7
81.04
90.95
98.94
104.66
107.84
108.32
106.13
101.54
95.08
87.47
79.54
72.16
66.16
62.29
61.1
62.71
66.63
71.67
76.21
78.63
77.92
73.92
67.28
59.03
50.13
41.15
32.28
23.56
15.14
7.29
0.15
-6.5
-13.35
-21.35
-31.27
-43.37
-57.4
-72.84
-89.28
-106.5
-124.28
-141.98
-150.0
-150.0
-150.0
-150.0
-150.0
-150.0
-142.88
-123.02
-102.61
-83.25
-66.08
-51.68
-40.08
-30.83
-23.33
-17.04
-11.73
-7.51
-4.69
-3.6
-4.38
-6.89
-10.79
-15.58
-20.75
-25.81
-30.34
-34.09
-36.98
-39.17
-40.9
-42.4
-43.73
-44.71
-44.95
-44.04
-41.63
-37.56
-31.9
-24.87
-16.83
-8.31
-0.04
7.09
12.19
14.67
14.47
12.24
9.15
6.64
5.91
7.63
11.74
17.56
24.15
30.66
36.61
41.98
47.01
51.91
56.51
60.19
62.05
61.3
57.52
50.93
42.12
31.9
20.93
9.76
-1.21
-11.47
-20.43
-27.43
-32.03
-34.14
-34.09
-32.47
-29.92
-26.93
-23.85
-20.91
-18.36
-16.49
-15.64
-16.07
-17.93
-21.22
-25.82
-31.52
-38.11
-45.23
-52.36
-58.69
-63.21
-64.92
-63.18
-57.96
-49.92
-40.27
-30.39
-21.39
-13.87
-7.87
-3.02
1.13
4.73
7.57
9.1
8.8
6.69
3.51
0.67
-0.39
1.19
5.15
10.19
14.68
17.41
18.24
18.02
17.94
18.73
20.15
21.07
19.98
15.77
8.28
-1.69
-12.66
-22.98
-31.25
-36.51
-38.29
-36.64
-32.13
-25.91
-19.47
-14.01
-9.56
-4.31
5.13
22.44
49.76
86.24
127.88
150.0
150.0
150.0
150.0
150.0
150.0
150.0
150.0
150.0
150.0
150.0
144.2
128.73
121.86
124.81
136.84
150.0
150.0
150.0
150.0
150.0
150.0
150.0
150.0
150.0
150.0
150.0
149.47
145.59
139.26
128.36
111.84
89.93
63.72
34.61
3.74
-28.35
-61.73
-96.81
-133.99
-150.0
-150.0
-150.0
-150.0
-150.0
-150.0
-150.0
-150.0
-150.0
-150.0
-150.0
-150.0
-150.0
-150.0
-150.0
-150.0
-150.0
-134.59
-109.04
-85.67
-65.56
-49.93
-39.22
-32.65
-28.52
-25.1
-21.64
-18.73
-18.05
-21.31
-29.02
-39.68
-49.91
-55.75
-54.38
-45.44
-31.13
-15.18
-1.19
8.7
14.2
16.39
16.9
17.17
18.1
20.07
23.06
26.87
31.25
36.21
42.06
49.04
57.23
66.64
77.41
89.98
104.87
122.12
140.75
150.0
150.0
150.0
150.0
150.0
150.0
150.0
150.0
150.0
150.0
150.0
150.0
135.19
112.47
98.79
94.96
98.74
106.19
113.26
116.18
112.96
103.5
88.93
70.7
49.76
27.02
3.64
-18.88
-41.23
-64.8
-90.98
-120.14
-150.0
-150.0
-150.0
-150.0
-150.0
-150.0
-150.0
-150.0
-150.0
-150.0
-150.0
-150.0
-150.0
-150.0
-150.0
-150.0
-150.0
-150.0
-150.0
-150.0
-150.0
-150.0
-150.0
-150.0
-150.0
-114.94
-17.8
65.96
132.54
150.0
150.0
150.0
150.0
150.0
150.0
150.0
150.0
150.0
150.0
150.0
150.0
150.0
150.0
150.0
150.0
150.0
150.0
150.0
150.0
150.0
150.0
149.63
138.13
123.81
110.39
98.49
87.87
74.01
53.81
26.97
-3.63
-34.48
-63.37
-89.63
-114.31
-138.44
-150.0
-150.0
-150.0
-150.0
-150.0
-150.0
-150.0
-150.0
-150.0
-150.0
-150.0
-150.0
-150.0
-150.0
-109.04
-60.57
-24.1
3.14
17.55
16.77
3.51
-13.91
-25.24
-22.27
-1.22
35.99
82.61
125.15
150.0
150.0
150.0
141.01
127.35
116.88
109.89
105.14
98.93
89.49
78.08
67.85
61.19
58.51
58.69
60.12
61.94
62.82
62.19
60.51
58.86
58.03
58.14
58.86
59.8
60.72
61.19
60.56
58.39
54.67
49.92
45.17
41.77
41.06
43.78
50.05
58.52
66.97
73.29
76.4
76.84
76.75
79.37
87.89
104.25
126.43
148.51
150.0
150.0
130.21
81.15
16.7
-55.75
-124.29
-150.0
-150.0
-150.0
-150.0
-150.0
-150.0
-150.0
-150.0
-150.0
-150.0
-150.0
-150.0
-150.0
-150.0
-150.0
-150.0
-150.0
-150.0
-150.0
-150.0
-121.1
-90.93
-66.2
-44.62
-22.9
1.64
29.91
60.2
89.28
113.88
132.5
146.09
150.0
150.0
150.0
150.0
150.0
150.0
150.0
150.0
150.0
150.0
150.0
150.0
150.0
150.0
150.0
150.0
150.0
150.0
150.0
150.0
150.0
150.0
150.0
150.0
150.0
150.0
150.0
150.0
150.0
150.0
150.0
150.0
150.0
127.1
98.26
71.06
45.1
18.59
-10.48
-43.22
-79.41
-117.66
-150.0
-150.0
-150.0
-150.0
-150.0
-150.0
-150.0
-150.0
-150.0
-150.0
-150.0
-150.0
-150.0
-150.0
-150.0
-150.0
-150.0
-150.0
-150.0
-150.0
-150.0
-150.0
-150.0
-150.0
-150.0
-150.0
-150.0
-150.0
-150.0
-150.0
-150.0
-150.0
-142.52
-124.25
-107.44
-91.39
-74.19
-54.12
-31.43
-8.93
8.96
18.46
18.45
11.36
2.22
-3.42
-1.5
9.34
27.94
51.55
77.23
102.75
127.02
150.0
150.0
150.0
150.0
150.0
150.0
150.0
150.0
150.0
150.0
150.0
150.0
150.0
150.0
150.0
150.0
150.0
150.0
150.0
150.0
150.0
150.0
150.0
133.5
98.83
75.58
64.74
64.64
72.01
83.35
95.48
105.21
108.8
102.39
83.6
53.68
18.23
-14.28
-35.86
-42.74
-37.03
-25.62
-16.85
-16.78
-27.1
-45.31
-66.83
-87.33
-104.26
-117.02
-126.09
-132.21
-135.91
-137.53
-137.6
-136.88
-136.26
-136.28
-136.74
-136.71
-134.87
-130.23
-122.74
-113.58
-104.88
-99.01
-97.59
-100.76
-106.88
-113.02
-116.03
-113.94
-106.81
-97.0
-88.42
-85.08
-89.4
-100.85
-115.46
-126.57
-126.77
-110.67
-77.22
-30.87
19.58
63.7
92.88
102.99
95.13
74.5
47.95
21.63
-0.46
-16.55
-26.37
-30.14
-27.97
-19.83
-5.91
12.78
34.12
55.12
72.72
84.86
91.43
94.28
96.32
99.94
105.75
112.41
117.65
119.99
120.01
120.23
123.84
132.71
146.12
150.0
150.0
150.0
150.0
150.0
150.0
150.0
150.0
150.0
150.0
150.0
150.0
150.0
150.0
140.8
104.12
65.62
27.27
-9.57
-44.29
-76.97
-108.53
-140.78
-150.0
-150.0
-150.0
-150.0
-150.0
-150.0
-150.0
-150.0
-150.0
-150.0
-150.0
-150.0
-150.0
-150.0
-150.0
-150.0
-150.0
-150.0
-150.0
-150.0
-150.0
-150.0
-150.0
-150.0
-150.0
-150.0
-150.0
-150.0
-145.9
-117.06
-90.56
-68.14
-49.58
-33.42
-17.89
-1.63
16.18
35.99
58.61
85.27
116.98
150.0
150.0
150.0
150.0
150.0
150.0
150.0
150.0
150.0
150.0
150.0
150.0
150.0
150.0
146.13
129.33
110.18
89.27
67.5
46.58
29.13
18.26
16.66
25.58
44.27
70.11
99.54
129.22
150.0
150.0
150.0
150.0
150.0
150.0
150.0
150.0
150.0
150.0
150.0
150.0
150.0
150.0
139.6
122.43
108.0
94.29
78.93
60.1
37.18
11.12
-15.72
-39.97
-58.11
-67.69
-68.3
-62.11
-53.36
-46.87
-46.29
-52.88
-65.46
-81.41
-98.07
-113.67
-127.28
-138.26
-145.64
-148.21
-145.07
-136.5
-124.07
-110.28
-97.59
-87.74
-81.4
-78.35
-77.93
-79.35
-81.83
-84.67
-87.22
-88.91
-89.16
-87.41
-83.12
-76.01
-66.3
-54.78
-42.72
-31.38
-21.5
-12.98
-5.19
2.56
10.48
18.09
24.48
28.95
31.46
32.82
34.39
37.38
42.29
48.58
54.99
60.15
63.26
64.51
64.93
65.85
68.21
72.13
76.96
81.69
85.51
88.22
90.17
91.95
94.03
96.54
99.24
101.71
103.48
104.14
103.16
99.99
94.13
85.32
73.88
60.78
47.6
35.97
27.01
20.64
15.4
8.87
-1.24
-15.79
-33.53
-51.28
-65.41
-73.5
-75.69
-74.61
-74.13
-77.47
-85.77
-97.85
-111.07
-122.88
-131.89
-138.1
-142.29
-145.06
-146.32
-145.22
-140.79
-132.64
-121.44
-108.88
-97.11
-87.86
-81.86
-78.66
-77.0
-75.55
-73.26
-69.54
-64.05
-56.42
-46.39
-34.06
-20.21
-6.33
5.79
14.63
19.4
20.22
17.96
14.01
10.03
7.79
8.76
13.73
22.33
33.03
43.59
52.1
57.79
61.36
64.54
69.14
76.06
84.97
94.51
103.09
109.67
114.07
116.88
118.9
120.62
122.01
122.61
121.88
119.55
115.78
111.03
105.97
101.16
96.96
93.47
90.55
87.9
85.12
81.77
77.45
71.8
64.6
55.81
45.57
34.2
22.1
9.71
-2.51
-14.22
-25.14
-35.12
-44.12
-52.23
-59.71
-66.99
-74.64
-83.32
-93.61
-105.68
-118.99
-132.21
-143.36
-150.0
-150.0
-148.33
-140.56
-131.14
-122.57
-116.74
-114.61
-116.31
-121.37
-128.76
-136.59
-142.04
-141.74
-132.95
-115.06
-90.48
-64.29
-42.53
-29.9
-28.06
-35.42
-48.22
-62.43
-75.08
-84.55
-90.14
-91.24
-87.07
-77.01
-61.13
-40.57
-17.2
7.13
31.35
55.46
80.21
106.41
134.22
150.0
150.0
150.0
150.0
150.0
150.0
150.0
150.0
150.0
150.0
150.0
150.0
150.0
150.0
150.0
150.0
150.0
147.89
129.3
114.63
105.51
102.3
104.05
108.91
114.61
118.95
119.92
115.99
106.38
91.5
73.12
54.04
37.03
23.86
14.56
7.63
0.91
-7.39
-17.99
-30.46
-43.66
-56.2
-66.72
-74.02
-77.08
-75.41
-69.37
-60.31
-50.26
-41.22
-34.32
-29.5
-25.75
-21.78
-16.88
-11.34
-6.19
-2.49
-0.49
0.63
2.35
5.63
10.1
13.74
13.64
7.18
-6.83
-28.08
-55.48
-88.1
-125.41
-150.0
-150.0
-150.0
-150.0
-150.0
-150.0
-150.0
-150.0
-150.0
-150.0
-150.0
-150.0
-150.0
-150.0
-150.0
-150.0
-150.0
-123.54
-86.23
-44.2
-0.12
43.53
84.52
121.16
150.0
150.0
150.0
150.0
150.0
150.0
150.0
150.0
150.0
150.0
150.0
150.0
150.0
150.0
150.0
150.0
150.0
150.0
150.0
150.0
150.0
150.0
150.0
150.0
150.0
150.0
121.71
92.43
63.78
36.0
9.08
-17.3
-43.73
-70.94
-99.55
-129.88
-150.0
-150.0
-150.0
-150.0
-150.0
-150.0
-150.0
-150.0
-150.0
-150.0
-150.0
-150.0
-150.0
-150.0
-150.0
-150.0
-150.0
-150.0
-150.0
-150.0
-150.0
-150.0
-150.0
-150.0
-150.0
-150.0
-150.0
-150.0
-150.0
-150.0
-150.0
-150.0
-150.0
-150.0
-150.0
-150.0
-137.55
-102.19
-66.3
-30.09
6.18
42.23
77.86
113.03
147.89
150.0
150.0
150.0
150.0
150.0
150.0
150.0
150.0
150.0
150.0
150.0
150.0
150.0
150.0
150.0
150.0
150.0
150.0
150.0
150.0
150.0
150.0
150.0
150.0
150.0
150.0
150.0
150.0
150.0
150.0
133.78
120.76
115.62
113.87
108.43
92.44
61.91
17.31
-36.83
-93.86
-147.13
-150.0
-150.0
-150.0
-150.0
-150.0
-150.0
-150.0
-150.0
-150.0
-150.0
-150.0
-150.0
-150.0
-150.0
-150.0
-150.0
-150.0
-150.0
-150.0
-150.0
-150.0
-150.0
-150.0
-140.86
-107.76
-71.36
-33.67
4.51
43.32
83.08
123.62
150.0
150.0
150.0
150.0
150.0
150.0
150.0
150.0
150.0
150.0
150.0
150.0
150.0
150.0
150.0
150.0
144.74
138.64
132.27
125.87
119.79
114.28
109.58
105.95
103.6
102.45
101.83
100.62
97.62
92.25
84.82
76.49
68.69
62.34
57.32
52.27
44.99
33.16
15.35
-8.33
-35.87
-63.88
-88.63
-107.28
-118.99
-125.14
-128.67
-132.78
-139.34
-148.02
-150.0
-150.0
-150.0
-150.0
-141.12
-128.69
-118.48
-111.99
-108.8
-107.25
-105.78
-103.87
-102.27
-102.43
-105.66
-112.48
-122.39
-133.96
-144.93
-150.0
-150.0
-143.73
-123.12
-91.92
-53.5
-12.99
24.25
54.29
75.52
88.66
95.76
99.08
100.14
99.5
97.01
92.26
84.99
75.42
64.38
53.25
43.82
37.83
36.42
39.74
46.71
55.35
63.34
68.91
71.6
72.66
74.7
80.73
92.83
111.07
133.27
150.0
150.0
150.0
150.0
150.0
150.0
150.0
150.0
150.0
150.0
150.0
150.0
150.0
150.0
150.0
150.0
150.0
150.0
150.0
150.0
144.6
134.38
121.79
106.28
88.04
68.26
48.75
30.94
15.07
-0.18
-17.05
-37.53
-62.01
-88.37
-112.31
-128.73
-133.85
-126.97
-111.1
-91.74
-74.61
-63.22
-57.86
-56.08
-54.68
-51.69
-47.33
-43.43
-42.34
-45.76
-54.44
-68.2
-86.01
-105.67
-123.55
-135.25
-137.09
-128.43
-112.85
-97.78
-91.93
-101.72
-128.51
-150.0
-150.0
-150.0
-150.0
-150.0
-150.0
-150.0
-150.0
-150.0
-150.0
-150.0
-150.0
-150.0
-150.0
-104.56
-62.07
-24.46
10.21
42.99
73.76
102.25
128.77
150.0
150.0
150.0
150.0
150.0
150.0
150.0
150.0
150.0
131.82
116.14
105.5
98.88
95.98
97.55
104.47
116.28
130.4
142.83
149.94
150.0
144.21
135.03
125.24
116.06
106.96
96.49
83.47
67.81
50.13
30.89
9.66
-14.7
-43.21
-75.91
-111.62
-148.4
-150.0
-150.0
-150.0
-150.0
-150.0
-150.0
-150.0
-150.0
-150.0
-150.0
-150.0
-150.0
-150.0
-150.0
-139.35
-110.82
-83.78
-61.89
-48.67
-46.0
-53.03
-66.02
-79.59
-88.28
-88.03
-77.03
-55.78
-26.74
6.18
38.35
65.21
83.04
89.56
84.12
67.77
43.05
13.72
-15.65
-40.31
-56.23
-60.72
-52.92
-33.65
-5.16
29.43
66.45
102.19
133.49
150.0
150.0
150.0
150.0
150.0
150.0
150.0
150.0
150.0
150.0
150.0
150.0
150.0
150.0
150.0
150.0
150.0
150.0
150.0
150.0
150.0
145.05
135.06
121.68
106.01
89.39
72.96
57.29
42.32
27.34
11.33
-6.65
-26.83
-48.48
-69.88
-88.76
-103.1
-111.84
-115.22
-114.61
-111.9
-108.9
-107.01
-107.43
-111.33
-119.77
-133.29
-150.0
-150.0
-150.0
-150.0
-150.0
-150.0
-150.0
-150.0
-150.0
-150.0
-150.0
-150.0
-150.0
-150.0
-150.0
-126.71
-100.4
-74.94
-51.51
-30.3
-10.84
7.41
24.87
41.94
59.13
76.95
95.54
114.3
131.99
147.28
150.0
150.0
150.0
150.0
150.0
150.0
150.0
150.0
150.0
149.77
137.63
126.68
117.94
111.66
107.36
103.92
100.01
94.51
86.89
77.39
66.8
56.18
46.59
38.88
33.57
30.63
29.42
28.58
26.53
21.97
14.67
5.57
-3.52
-10.85
-15.46
-17.57
-18.26
-18.7
-19.56
-20.68
-21.35
-20.84
-18.77
-15.31
-10.98
-6.44
-2.25
1.16
3.37
3.91
2.29
-1.95
-9.01
-18.64
-30.15
-42.4
-54.06
-63.95
-71.29
-75.82
-77.71
-77.33
-75.07
-71.44
-67.19
-63.41
-61.21
-61.15
-62.8
-64.77
-65.46
-63.85
-60.16
-55.57
-51.48
-48.57
-46.44
-43.86
-39.52
-32.74
-23.66
-13.03
-1.75
9.45
20.0
29.32
36.63
41.15
42.37
40.42
36.29
31.83
29.34
31.05
38.37
51.31
68.26
86.35
102.38
113.95
120.33
122.6
122.96
123.59
125.54
128.49
131.14
132.14
130.95
127.99
124.26
120.62
117.35
114.1
110.4
105.99
101.05
95.94
90.83
85.62
79.99
73.76
66.95
59.55
51.01
39.83
23.79
0.73
-30.23
-67.8
-108.48
-147.54
-150.0
-150.0
-150.0
-150.0
-150.0
-150.0
-150.0
-150.0
-150.0
-150.0
-150.0
-150.0
-150.0
-150.0
-150.0
-150.0
-150.0
-143.8
-113.22
-84.67
-60.73
-42.65
-30.28
-22.35
-16.83
-11.5
-4.51
5.1
17.16
30.45
43.16
53.56
60.7
64.67
66.52
67.71
69.43
72.09
75.35
78.23
79.66
78.81
75.19
68.76
59.86
49.32
38.44
28.95
22.64
21.01
24.73
33.54
46.28
61.15
76.16
89.54
100.04
107.16
111.15
112.82
113.36
113.97
115.54
118.45
122.39
126.5
129.72
131.04
129.88
126.16
120.23
112.64
103.87
94.01
82.67
69.13
52.76
33.61
12.68
-8.15
-26.76
-41.55
-52.0
-58.49
-61.68
-61.78
-58.32
-50.65
-38.98
-25.02
-11.85
-2.97
-0.83
-5.9
-16.5
-29.62
-41.96
-51.06
-55.85
-57.01
-57.07
-60.09
-70.96
-93.81
-130.3
-150.0
-150.0
-150.0
-150.0
-150.0
-150.0
-150.0
-150.0
-150.0
-150.0
-150.0
-147.34
-118.61
-94.09
-71.71
-49.73
-27.52
-5.82
13.85
30.06
42.4
51.74
59.92
69.09
80.83
95.68
113.1
131.78
150.0
150.0
150.0
150.0
150.0
150.0
150.0
150.0
150.0
150.0
150.0
150.0
150.0
150.0
150.0
150.0
150.0
150.0
150.0
131.62
114.18
100.91
90.58
81.01
69.84
55.24
36.3
13.22
-12.73
-39.5
-64.78
-86.44
-103.22
-115.06
-123.31
-130.32
-138.75
-150.0
-150.0
-150.0
-150.0
-150.0
-150.0
-150.0
-150.0
-150.0
-150.0
-150.0
-150.0
-150.0
-150.0
-150.0
-137.75
-113.48
-89.8
-68.83
-52.08
-40.22
-33.15
-30.25
-30.49
-32.39
-34.02
-33.07
-27.48
-16.21
0.1
19.21
38.07
53.99
65.62
73.13
77.6
80.0
80.49
78.34
72.56
62.81
49.97
35.99
23.28
13.87
8.84
8.29
11.56
17.5
24.67
31.44
36.18
37.73
35.79
31.32
26.33
23.21
23.85
28.92
37.66
48.3
58.91
68.18
75.83
82.53
89.37
97.19
106.12
115.39
123.59
129.15
130.95
128.7
122.98
114.96
105.85
96.45
86.99
77.19
66.56
54.75
41.8
28.18
14.64
2.02
-9.01
-18.12
-25.36
-31.1
-35.96
-40.6
-45.54
-51.1
-57.24
-63.63
-69.73
-75.05
-79.44
-83.27
-87.38
-92.72
-99.76
-108.21
-116.96
-124.54
-129.74
-132.03
-131.49
-128.48
-123.15
-115.36
-104.94
-92.19
-78.13
-64.5
-53.23
-45.87
-43.25
-45.38
-51.6
-60.73
-71.39
-82.14
-91.8
-99.71
-105.73
-109.93
-112.09
-111.24
-105.64
-93.47
-73.71
-46.93
-15.38
17.63
48.85
76.01
98.26
115.89
129.65
140.22
148.04
150.0
150.0
150.0
150.0
150.0
150.0
150.0
150.0
150.0
148.22
141.92
135.71
130.16
125.49
121.73
118.77
116.55
114.98
113.91
113.11
112.14
110.41
107.15
101.52
92.81
80.82
66.18
50.43
35.62
23.49
14.63
8.0
1.15
-8.76
-23.76
-43.92
-67.2
-90.03
-108.49
-119.58
-122.01
-116.37
-104.73
-89.92
-74.79
-61.64
-51.86
-45.86
-43.19
-42.82
-43.54
-44.17
-43.87
-42.21
-39.29
-35.78
-32.84
-31.78
-33.48
-37.8
-43.46
-48.42
-50.83
-50.05
-47.19
-44.8
-45.81
-52.21
-64.05
-79.3
-94.48
-105.71
-109.79
-105.01
-91.31
-70.29
-44.92
-18.94
3.71
19.67
26.98
25.45
16.77
3.93
-9.64
-20.93
-27.81
-28.9
-23.32
-10.47
9.76
36.29
66.43
95.98
120.38
136.16
142.22
140.03
132.77
123.81
115.53
108.84
103.59
99.27
95.58
92.51
90.13
88.37
86.94
85.45
83.43
80.34
75.59
68.7
59.57
48.79
37.65
27.66
19.87
14.33
10.04
5.37
-1.12
-10.07
-21.08
-32.95
-44.28
-53.93
-61.29
-66.43
-69.83
-72.25
-74.51
-77.32
-81.13
-86.02
-91.68
-97.43
-102.56
-106.42
-108.54
-108.56
-106.16
-101.11
-93.55
-84.21
-74.48
-66.06
-60.29
-57.66
-57.57
-58.65
-59.44
-58.96
-56.99
-53.9
-50.22
-46.15
-41.39
-35.1
-26.21
-13.78
2.53
22.09
43.27
63.82
81.68
95.77
106.44
115.26
124.03
133.78
144.17
150.0
150.0
150.0
150.0
150.0
150.0
150.0
145.84
141.58
137.33
133.11
129.21
125.92
123.24
120.84
118.17
114.8
110.73
106.44
102.57
99.53
97.05
94.09
89.19
81.05
69.33
54.83
39.14
23.64
8.52
-7.58
-27.03
-52.04
-83.39
-119.69
-150.0
-150.0
-150.0
-150.0
-150.0
-150.0
-150.0
-150.0
-150.0
-150.0
-150.0
-146.32
-150.0
-150.0
-150.0
-150.0
-150.0
-150.0
-150.0
-150.0
-150.0
-150.0
-150.0
-150.0
-150.0
-150.0
-150.0
-150.0
-150.0
-150.0
-150.0
-150.0
-141.32
-108.55
-71.03
-30.18
11.88
52.31
87.96
116.19
135.68
146.8
150.0
150.0
146.22
138.84
128.66
116.58
104.53
95.08
90.45
91.53
97.63
106.94
117.56
128.26
138.56
148.37
150.0
150.0
150.0
150.0
150.0
150.0
150.0
150.0
150.0
149.13
145.49
143.14
142.68
144.66
149.13
150.0
150.0
150.0
150.0
150.0
150.0
150.0
137.6
123.61
110.43
99.5
91.73
87.38
86.07
86.96
89.11
91.83
94.73
97.49
99.36
98.87
93.98
82.88
64.68
40.01
10.79
-20.62
-52.36
-83.73
-115.29
-148.48
-150.0
-150.0
-150.0
-150.0
-150.0
-150.0
-150.0
-150.0
-150.0
-150.0
-150.0
-150.0
-150.0
-150.0
-150.0
-150.0
-150.0
-150.0
-150.0
-150.0
-137.67
-97.74
-48.88
6.62
63.95
116.34
150.0
150.0
150.0
150.0
131.74
95.1
59.01
27.43
1.66
-18.6
-33.72
-43.38
-46.79
-43.64
-34.64
-21.42
-5.65
11.77
30.89
52.24
75.8
100.57
124.65
145.93
150.0
150.0
150.0
150.0
150.0
150.0
150.0
149.07
139.55
131.85
126.14
122.13
119.58
118.66
119.97
124.32
132.16
143.08
150.0
150.0
150.0
150.0
150.0
150.0
143.73
123.41
102.43
82.79
65.55
50.73
37.43
24.35
10.52
-4.14
-18.51
-30.83
-39.51
-44.17
-46.1
-47.81
-51.96
-60.07
-71.95
-86.02
-100.42
-113.89
-126.21
-137.68
-148.35
-150.0
-150.0
-150.0
-150.0
-150.0
-150.0
-150.0
-150.0
-150.0
-150.0
-150.0
-150.0
-150.0
-150.0
-150.0
-150.0
-150.0
-150.0
-150.0
-150.0
-136.59
-122.58
-108.77
-94.95
-80.58
-65.46
-50.25
-36.61
-26.56
-21.64
-22.22
-27.3
-34.82
-42.35
-47.55
-48.58
-44.19
-33.92
-18.22
1.49
22.96
43.69
61.65
75.82
86.37
94.26
100.79
106.9
113.01
118.8
123.5
126.12
125.79
122.11
115.21
105.87
95.42
85.71
78.85
76.79
80.76
90.66
104.79
120.16
133.56
142.67
146.88
147.19
145.39
142.88
139.94
135.79
129.31
120.04
108.62
96.84
86.83
80.3
77.8
78.43
80.24
80.91
78.76
73.21
64.91
55.14
45.09
35.35
25.82
15.95
4.99
-7.78
-23.02
-41.1
-61.81
-84.0
-105.56
-123.96
-137.27
-144.95
-148.17
-149.27
-150.0
-150.0
-150.0
-150.0
-150.0
-150.0
-150.0
-150.0
-150.0
-150.0
-150.0
-146.99
-134.97
-123.07
-111.01
-97.83
-82.15
-62.68
-38.78
-11.04
18.34
45.84
67.55
80.46
83.59
78.4
68.12
56.54
46.56
39.54
35.54
34.15
35.06
38.23
43.36
49.61
55.72
60.79
65.14
70.39
78.67
91.13
106.93
123.26
136.51
143.97
144.99
141.05
134.77
128.55
123.74
120.48
118.17
115.95
113.09
109.04
103.55
96.7
88.91
80.94
73.65
67.69
63.35
60.5
58.72
57.49
56.25
54.49
51.68
47.44
41.65
34.7
27.41
20.71
15.23
10.83
6.71
1.74
-4.84
-13.03
-22.09
-30.91
-38.7
-45.34
-51.26
-57.09
-63.1
-69.03
-74.17
-77.88
-79.94
-80.76
-81.13
-81.87
-83.43
-85.72
-88.24
-90.34
-91.6
-91.92
-91.49
-90.57
-89.29
-87.56
-85.24
-82.33
-79.14
-76.22
-74.07
-72.89
-72.4
-71.9
-70.58
-67.79
-63.3
-57.33
-50.52
-43.6
-37.28
-31.97
-27.78
-24.53
-21.79
-19.05
-15.7
-11.25
-5.34
2.08
10.83
20.51
30.65
40.75
50.33
58.85
65.69
70.24
72.1
71.42
68.97
66.01
63.77
62.95
63.39
64.22
64.34
63.11
60.72
58.01
56.04
55.36
55.71
56.05
55.03
51.61
45.39
36.76
26.69
16.3
6.5
-2.43
-10.94
-20.14
-31.51
-46.34
-64.98
-86.19
-106.73
-121.78
-125.95
-114.87
-86.87
-44.04
7.77
60.29
104.96
135.38
148.81
146.37
131.93
110.24
85.51
60.64
37.32
16.55
-0.95
-14.74
-24.75
-31.45
-35.8
-38.88
-41.53
-44.1
-46.49
-48.16
-48.2
-45.51
-39.07
-28.46
-14.01
3.11
21.41
39.29
55.69
70.18
82.95
94.52
105.17
114.62
121.83
125.19
122.57
112.34
94.25
69.98
42.95
17.01
-4.72
-20.75
-31.29
-38.67
-46.36
-58.02
-76.13
-101.07
-130.68
-150.0
-150.0
-150.0
-150.0
-150.0
-136.78
-108.25
-88.14
-81.03
-87.06
-102.65
-117.42
-121.32
-108.48
-80.82
-45.83
-10.88
20.4
47.89
72.64
94.94
113.12
124.82
128.29
124.5
116.71
108.93
104.07
102.93
104.28
104.97
101.33
90.56
72.74
50.34
26.85
5.22
-13.14
-28.67
-43.49
-56.73
-70.38
-85.0
-99.29
-110.92
-118.01
-119.79
-117.06
-111.95
-106.92
-104.47
-105.8
-111.17
-120.0
-130.49
-139.16
-141.17
-131.81
-108.72
-74.1
-33.93
3.81
32.25
48.25
53.1
50.96
46.3
41.67
37.06
31.49
24.39
16.53
9.71
5.62
4.86
6.58
9.15
10.63
10.19
8.25
6.31
6.27
9.57
16.74
26.99
38.53
49.15
57.2
62.0
64.15
65.15
66.72
70.11
75.46
81.71
86.99
89.62
88.54
84.09
77.79
71.76
68.27
69.2
75.79
88.12
104.43
120.59
130.65
128.51
110.41
77.16
34.35
-9.53
-46.66
-72.62
-87.85
-96.12
-102.17
-109.49
-119.23
-130.5
-141.33
-149.6
-150.0
-150.0
-141.42
-127.04
-110.92
-97.02
-88.28
-85.29
-86.42
-89.08
-91.43
-93.12
-93.54
-92.1
-86.87
-74.81
-53.14
-21.09
19.66
65.92
114.74
150.0
150.0
150.0
150.0
150.0
150.0
150.0
150.0
150.0
150.0
150.0
150.0
142.46
113.72
88.34
64.29
38.51
8.03
-28.27
-68.72
-109.12
-144.66
-150.0
-150.0
-150.0
-150.0
-150.0
-150.0
-150.0
-150.0
-124.48
-92.72
-62.85
-37.6
-18.48
-6.48
-2.75
-8.25
-22.65
-43.28
-65.17
-82.7
-91.97
-92.47
-86.72
-78.53
-70.62
-63.74
-56.99
-49.45
-41.1
-32.99
-26.36
-21.88
-19.65
-19.35
-20.68
-22.89
-24.54
-23.57
-18.34
-8.8
3.38
15.95
28.0
41.33
60.08
88.71
129.4
150.0
150.0
150.0
150.0
150.0
150.0
150.0
150.0
150.0
150.0
150.0
150.0
150.0
143.3
99.62
73.57
66.2
73.5
87.26
97.64
96.88
81.96
55.26
22.23
-11.92
-44.91
-78.06
-114.6
-150.0
-150.0
-150.0
-150.0
-150.0
-150.0
-150.0
-150.0
-150.0
-150.0
-150.0
-150.0
-150.0
-150.0
-150.0
-150.0
-129.2
-107.19
-92.13
-83.87
-79.89
-76.08
-68.46
-54.43
-33.75
-8.99
15.5
35.2
48.01
55.66
62.92
75.0
93.92
116.3
134.0
137.74
121.82
86.97
40.42
-7.7
-48.06
-75.21
-87.89
-87.38
-75.7
-54.61
-26.25
6.75
41.21
74.87
107.09
138.6
150.0
150.0
150.0
150.0
150.0
150.0
150.0
147.55
117.05
90.75
70.23
56.63
50.43
50.65
54.02
55.46
49.95
34.67
10.44
-18.62
-46.5
-67.45
-77.58
-76.07
-65.67
-51.91
-41.94
-42.3
-57.1
-86.75
-128.09
-150.0
-150.0
-150.0
-150.0
-150.0
-150.0
-150.0
-150.0
-150.0
-150.0
-93.61
-19.71
56.04
129.72
150.0
150.0
150.0
150.0
150.0
150.0
150.0
87.03
18.05
-44.62
-93.32
-121.76
-127.06
-111.52
-82.73
-51.79
-30.2
-26.82
-45.97
-86.65
-142.86
-150.0
-150.0
-150.0
-150.0
-150.0
-150.0
-150.0
-150.0
-85.27
-16.37
48.6
105.25
149.12
150.0
150.0
150.0
150.0
148.86
143.12
150.0
150.0
150.0
150.0
150.0
150.0
145.53
100.08
51.53
4.54
-37.47
-70.75
-91.06
-95.58
-85.79
-68.56
-54.55
-54.02
-72.75
-110.15
-150.0
-150.0
-150.0
-150.0
-150.0
-150.0
-150.0
-150.0
-150.0
-148.81
-84.09
-32.09
3.0
22.47
32.24
39.77
51.27
69.65
93.99
120.5
144.29
150.0
150.0
150.0
150.0
143.32
126.46
110.73
98.15
88.2
76.98
59.81
34.77
3.94
-26.77
-50.76
-65.17
-73.01
-81.44
-98.13
-125.76
-150.0
-150.0
-150.0
-150.0
-150.0
-150.0
-150.0
-150.0
-150.0
-150.0
-150.0
-123.1
-76.62
-25.79
29.83
95.15
150.0
150.0
150.0
150.0
150.0
150.0
150.0
150.0
150.0
150.0
150.0
150.0
150.0
150.0
150.0
150.0
150.0
150.0
150.0
150.0
150.0
150.0
150.0
150.0
150.0
133.38
76.44
14.16
-45.88
-93.28
-118.37
-115.58
-85.95
-37.39
17.84
67.26
101.93
118.48
118.85
107.26
87.88
63.01
32.93
-3.84
-49.27
-104.25
-150.0
-150.0
-150.0
-150.0
-150.0
-150.0
-150.0
-150.0
-150.0
-150.0
-139.23
-143.24
-150.0
-150.0
-150.0
-150.0
-150.0
-134.68
-115.47
-106.35
-108.37
-117.77
-128.87
-137.33
-141.57
-142.04
-139.19
-132.48
-120.65
-103.41
-82.23
-60.21
-40.31
-23.51
-8.04
10.11
35.62
72.4
122.32
150.0
150.0
150.0
150.0
150.0
150.0
150.0
150.0
150.0
150.0
150.0
148.33
137.15
125.64
106.2
75.72
37.7
1.3
-22.26
-24.47
-3.24
36.58
85.67
134.63
150.0
150.0
150.0
150.0
150.0
150.0
150.0
128.89
69.46
11.36
-39.68
-82.63
-121.39
-150.0
-150.0
-150.0
-150.0
-150.0
-150.0
-150.0
-150.0
-150.0
-150.0
-150.0
-150.0
-131.97
-116.22
-121.72
-138.56
-150.0
-150.0
-136.56
-104.6
-67.97
-36.24
-14.02
0.64
13.11
27.99
46.29
65.69
83.34
98.32
111.44
123.27
131.94
133.11
122.44
98.61
64.74
27.17
-7.62
-35.62
-55.39
-67.22
-71.34
-67.99
-58.43
-45.97
-35.44
-30.79
-32.8
-37.71
-38.63
-28.44
-2.93
38.43
93.33
150.0
150.0
150.0
150.0
150.0
150.0
150.0
150.0
150.0
150.0
150.0
150.0
150.0
150.0
150.0
150.0
88.72
29.75
-12.84
-34.97
-37.77
-26.84
-10.31
3.68
9.34
4.34
-9.67
-28.18
-45.31
-56.33
-59.59
-57.4
-55.43
-60.28
-76.7
-105.55
-143.81
-150.0
-150.0
-150.0
-150.0
-150.0
-150.0
-150.0
-150.0
-150.0
-150.0
-150.0
-126.53
-106.69
-106.35
-115.63
-122.04
-116.99
-100.07
-78.13
-60.23
-51.9
-52.11
-54.99
-53.99
-45.9
-31.78
-14.55
3.51
21.95
40.92
59.65
75.79
86.87
92.46
94.85
97.43
101.98
106.86
107.18
97.68
74.84
38.86
-7.18
-57.95
-107.69
-150.0
-150.0
-150.0
-150.0
-150.0
-150.0
-150.0
-138.26
-115.37
-95.96
-81.74
-72.45
-65.54
-56.91
-43.11
-23.32
0.19
23.55
43.26
57.07
63.21
59.3
42.38
11.32
-30.47
-74.03
-107.06
-118.98
-105.61
-70.9
-24.43
22.9
63.12
92.81
112.17
123.06
127.64
127.79
125.27
121.37
116.45
109.49
98.84
83.57
65.0
46.51
31.72
22.08
15.64
8.22
-3.61
-19.8
-36.23
-46.85
-47.16
-36.6
-18.15
3.82
26.25
48.1
69.35
89.2
105.44
115.69
118.9
116.73
112.47
109.21
108.12
108.2
107.49
104.54
99.35
92.83
86.13
79.82
74.43
70.66
69.75
72.62
78.99
86.86
93.13
94.96
90.95
81.54
68.17
52.44
35.33
17.7
0.92
-13.34
-23.73
-30.92
-37.58
-47.46
-62.82
-82.45
-101.45
-113.2
-112.87
-99.58
-77.2
-51.91
-29.74
-14.0
-4.96
-0.58
1.89
4.55
8.52
13.66
19.35
24.53
28.66
31.86
35.39
41.37
51.65
67.22
86.91
107.87
126.39
139.54
146.43
148.33
148.21
148.86
150.0
150.0
150.0
150.0
150.0
131.12
98.04
51.45
-6.77
-71.39
-133.73
-150.0
-150.0
-150.0
-150.0
-116.95
-54.32
1.35
37.67
47.97
32.7
-1.42
-44.59
-87.12
-122.4
-147.92
-150.0
-150.0
-150.0
-150.0
-134.37
-95.9
-49.22
-3.51
31.24
49.19
51.56
46.54
44.86
54.37
75.86
103.1
126.58
138.4
136.29
123.51
106.16
88.62
70.76
48.08
14.8
-31.89
-88.94
-147.14
-150.0
-150.0
-150.0
-150.0
-138.04
-84.85
-38.77
-9.92
-3.9
-21.25
-57.6
-104.35
-150.0
-150.0
-150.0
-150.0
-150.0
-142.36
-108.31
-74.56
-39.36
1.73
52.48
112.85
150.0
150.0
150.0
150.0
150.0
150.0
150.0
150.0
150.0
150.0
118.63
65.87
14.69
-34.49
-82.32
-130.99
-150.0
-150.0
-150.0
-150.0
-150.0
-150.0
-150.0
-150.0
-150.0
-150.0
-150.0
-150.0
-150.0
-150.0
-99.83
-48.37
-7.31
20.34
35.44
43.17
50.64
63.62
83.73
108.26
131.94
149.7
150.0
150.0
150.0
147.28
138.66
129.86
119.98
107.2
89.37
65.26
35.52
3.17
-26.82
-48.76
-58.13
-53.24
-36.09
-11.65
13.91
35.59
51.11
61.81
71.0
82.0
95.93
111.1
124.19
132.37
134.9
132.97
128.22
120.85
109.51
92.55
70.24
45.89
24.74
11.26
6.54
7.62
8.56
3.61
-10.76
-35.05
-67.41
-104.85
-143.8
-150.0
-150.0
-150.0
-150.0
-150.0
-150.0
-147.39
-110.65
-75.29
-43.5
-16.29
6.61
25.97
42.95
57.63
68.23
71.13
62.77
42.33
13.57
-15.73
-36.93
-44.75
-39.83
-27.63
-14.88
-5.25
2.13
10.75
22.44
33.96
37.06
22.43
-15.01
-72.67
-140.84
-150.0
-150.0
-150.0
-150.0
-150.0
-150.0
-150.0
-150.0
-150.0
-150.0
-150.0
-150.0
-150.0
-148.37
-126.86
-105.91
-84.81
-62.82
-39.25
-13.67
14.43
45.97
82.47
125.08
150.0
150.0
150.0
150.0
150.0
150.0
150.0
145.58
94.09
60.09
48.07
56.18
79.07
111.34
149.66
150.0
150.0
150.0
150.0
150.0
150.0
150.0
150.0
150.0
150.0
150.0
150.0
102.71
55.66
17.62
-7.51
-20.41
-27.34
-37.92
-60.5
-97.52
-143.67
-150.0
-150.0
-150.0
-150.0
-150.0
-122.38
-60.91
4.84
68.8
123.38
150.0
150.0
150.0
119.08
62.9
-0.52
-60.92
-109.5
-140.37
-150.0
-145.31
-127.28
-104.03
-80.13
-55.89
-27.71
9.21
56.95
112.51
150.0
150.0
150.0
150.0
150.0
150.0
150.0
130.28
93.58
63.12
40.79
26.78
19.84
17.86
18.32
18.73
16.91
11.27
1.53
-10.62
-21.35
-25.81
-20.27
-4.19
18.71
41.82
58.31
64.1
59.43
48.09
35.12
24.26
16.53
10.53
4.02
-4.73
-16.22
-30.27
-46.64
-65.32
-85.99
-107.26
-126.37
-139.77
-144.42
-139.12
-125.06
-105.54
-84.74
-66.24
-51.94
-41.54
-33.01
-23.54
-10.87
5.67
24.71
43.24
57.71
65.27
64.78
56.9
43.72
28.26
14.04
4.69
3.3
11.28
27.27
47.13
65.13
76.35
78.83
74.43
67.69
63.4
64.28
69.92
77.59
83.97
86.97
86.4
83.51
79.93
76.58
73.34
69.3
63.35
54.83
43.89
31.44
18.69
6.61
-4.52
-15.08
-25.67
-36.47
-46.91
-55.67
-61.5
-63.92
-63.75
-62.79
-62.85
-64.72
-67.6
-69.48
-68.09
-62.12
-51.84
-38.91
-25.54
-13.45
-3.35
5.17
13.02
20.95
28.97
36.25
41.4
42.91
39.63
30.97
16.99
-1.6
-23.43
-46.42
-67.8
-84.43
-93.55
-93.52
-84.55
-68.73
-49.47
-30.29
-13.66
-0.39
10.32
20.0
30.03
40.97
52.57
64.13
74.97
84.66
93.05
100.09
105.87
110.66
114.99
119.49
124.52
129.86
134.63
137.74
138.58
137.45
135.51
134.05
133.75
134.14
133.83
131.37
126.2
119.34
113.04
109.98
111.76
117.83
125.22
129.28
125.14
109.2
80.2
39.46
-9.61
-61.89
-111.17
-150.0
-150.0
-150.0
-150.0
-130.38
-98.37
-75.15
-66.99
-72.34
-82.75
-87.78
-80.89
-62.81
-40.57
-22.88
-15.11
-17.1
-24.53
-32.31
-37.65
-40.74
-43.39
-47.35
-53.67
-63.48
-78.85
-102.66
-137.03
-150.0
-150.0
-150.0
-150.0
-150.0
-150.0
-150.0
-150.0
-150.0
-150.0
-150.0
-150.0
-150.0
-150.0
-138.98
-74.74
-12.57
41.02
80.72
103.93
111.9
109.51
103.96
102.4
109.61
126.92
150.0
150.0
150.0
150.0
150.0
150.0
150.0
150.0
150.0
150.0
150.0
150.0
150.0
150.0
150.0
150.0
150.0
150.0
150.0
150.0
150.0
150.0
150.0
150.0
150.0
150.0
150.0
150.0
150.0
142.97
111.15
81.8
56.66
37.09
23.76
16.36
13.4
12.42
10.8
6.54
-1.17
-12.08
-25.47
-40.88
-58.21
-77.38
-97.82
-118.23
-137.23
-150.0
-150.0
-150.0
-150.0
-150.0
-150.0
-150.0
-150.0
-150.0
-150.0
-150.0
-150.0
-150.0
-150.0
-150.0
-150.0
-150.0
-150.0
-116.17
-77.95
-41.52
-7.41
23.39
49.4
69.15
81.7
86.85
84.93
76.29
61.02
39.42
13.09
-13.4
-32.45
-34.88
-13.49
33.41
99.71
150.0
150.0
150.0
150.0
150.0
150.0
150.0
150.0
150.0
141.27
118.18
88.45
52.62
14.64
-20.09
-48.06
-69.08
-86.62
-105.91
-131.81
-150.0
-150.0
-150.0
-150.0
-150.0
-150.0
-150.0
-150.0
-150.0
-150.0
-150.0
-150.0
-150.0
-150.0
-150.0
-150.0
-150.0
-150.0
-150.0
-150.0
-150.0
-150.0
-150.0
-150.0
-150.0
-150.0
-150.0
-150.0
-150.0
-150.0
-150.0
-150.0
-150.0
-150.0
-150.0
-150.0
-127.52
-101.14
-78.83
-54.39
-23.57
12.67
47.64
71.85
77.81
64.39
38.02
10.13
-7.84
-9.12
6.14
32.15
61.08
86.7
106.57
121.88
135.72
150.0
150.0
150.0
150.0
150.0
150.0
150.0
150.0
150.0
150.0
150.0
150.0
150.0
135.34
90.07
60.73
41.03
25.02
10.25
-3.15
-15.85
-31.8
-56.79
-94.29
-141.6
-150.0
-150.0
-150.0
-150.0
-150.0
-150.0
-150.0
-150.0
-150.0
-150.0
-150.0
-150.0
-150.0
-150.0
-150.0
-130.4
-112.98
-97.48
-81.32
-61.86
-38.13
-11.47
15.13
38.87
58.41
74.62
89.97
107.27
128.35
150.0
150.0
150.0
150.0
150.0
150.0
150.0
150.0
150.0
150.0
150.0
150.0
141.58
128.46
139.07
150.0
150.0
150.0
150.0
150.0
150.0
150.0
150.0
150.0
150.0
150.0
150.0
150.0
150.0
150.0
150.0
150.0
150.0
150.0
150.0
132.04
92.15
51.0
6.9
-42.68
-99.67
-150.0
-150.0
-150.0
-150.0
-150.0
-150.0
-150.0
-150.0
-150.0
-150.0
-150.0
-106.69
-33.22
33.18
80.22
96.78
77.47
25.72
-47.03
-125.26
-150.0
-150.0
-150.0
-150.0
-150.0
-150.0
-150.0
-150.0
-142.54
-142.91
-150.0
-150.0
-150.0
-150.0
-150.0
-150.0
-150.0
-130.33
-91.77
-51.76
-12.66
24.14
58.55
91.37
124.35
150.0
150.0
150.0
150.0
150.0
150.0
150.0
150.0
150.0
150.0
150.0
150.0
150.0
150.0
150.0
150.0
150.0
103.57
54.66
3.27
-53.95
-119.71
-150.0
-150.0
-150.0
-150.0
-150.0
-150.0
-150.0
-150.0
-150.0
-150.0
-150.0
-150.0
-139.79
-89.26
-32.78
26.25
81.67
126.49
150.0
150.0
150.0
141.58
118.62
96.6
79.56
68.77
62.6
56.88
45.71
22.87
-15.96
-70.79
-136.06
-150.0
-150.0
-150.0
-150.0
-150.0
-150.0
-150.0
-141.44
-95.96
-53.8
-15.05
20.86
55.41
91.43
132.99
150.0
150.0
150.0
150.0
150.0
150.0
150.0
150.0
150.0
150.0
150.0
150.0
110.88
64.83
31.05
11.97
8.19
17.63
35.74
56.7
74.61
84.32
81.62
63.87
30.94
-13.57
-61.98
-103.61
-127.73
-127.32
-101.82
-57.64
-5.97
41.31
75.7
94.26
99.12
95.07
86.47
75.6
62.63
46.76
27.48
4.87
-21.21
-52.11
-90.72
-140.03
-150.0
-150.0
-150.0
-150.0
-150.0
-150.0
-150.0
-150.0
-150.0
-150.0
-150.0
-139.62
-100.76
-64.03
-26.68
13.26
57.3
106.8
150.0
150.0
150.0
150.0
150.0
150.0
150.0
150.0
150.0
150.0
150.0
150.0
150.0
150.0
150.0
150.0
150.0
150.0
150.0
142.9
123.7
105.36
86.35
64.98
40.84
15.56
-7.62
-25.73
-37.93
-46.4
-55.53
-69.66
-90.93
-118.23
-147.9
-150.0
-150.0
-150.0
-150.0
-150.0
-150.0
-138.39
-88.32
-30.77
27.88
81.39
125.64
150.0
150.0
150.0
150.0
150.0
150.0
150.0
150.0
135.79
101.64
62.17
16.7
-35.06
-91.54
-148.69
-150.0
-150.0
-150.0
-150.0
-150.0
-150.0
-150.0
-150.0
-150.0
-150.0
-150.0
-150.0
-150.0
-150.0
-150.0
-150.0
-150.0
-150.0
-150.0
-150.0
-118.71
-66.41
-11.36
46.68
107.87
150.0
150.0
150.0
150.0
150.0
150.0
150.0
150.0
150.0
150.0
150.0
150.0
150.0
150.0
150.0
150.0
150.0
150.0
150.0
109.35
60.7
7.56
-48.62
-105.34
-150.0
-150.0
-150.0
-150.0
-150.0
-150.0
-150.0
-150.0
-150.0
-150.0
-150.0
-150.0
-112.49
-68.43
-41.51
-30.34
-29.8
-33.55
-36.3
-34.71
-27.33
-14.25
2.99
21.52
37.53
47.11
47.33
37.22
17.87
-8.03
-37.16
-65.98
-91.62
-112.04
-126.67
-136.17
-141.91
-144.93
-145.11
-141.01
-131.1
-115.42
-96.67
-79.6
-68.61
-64.97
-65.42
-63.08
-50.49
-22.77
20.33
74.87
134.73
150.0
150.0
150.0
150.0
150.0
150.0
150.0
150.0
150.0
150.0
150.0
150.0
150.0
150.0
150.0
150.0
150.0
150.0
134.29
103.03
80.35
64.39
50.73
34.12
9.87
-24.67
-69.24
-120.31
-150.0
-150.0
-150.0
-150.0
-150.0
-150.0
-150.0
-150.0
-150.0
-150.0
-150.0
-150.0
-150.0
-150.0
-150.0
-116.63
-74.74
-43.66
-22.88
-9.77
-0.86
7.26
17.53
31.71
49.43
67.7
81.13
83.9
71.9
44.71
5.98
-37.45
-77.87
-108.57
-125.6
-128.53
-120.28
-106.11
-91.7
-81.42
-77.03
-77.66
-80.91
-84.27
-86.16
-85.98
-83.74
-79.53
-73.27
-64.61
-52.64
-36.03
-13.49
15.14
48.22
82.16
112.59
136.15
150.0
150.0
150.0
150.0
150.0
150.0
150.0
144.98
138.96
135.77
136.33
140.3
146.4
150.0
150.0
150.0
150.0
150.0
142.26
130.73
116.72
99.31
77.16
49.55
16.88
-19.84
-59.95
-104.02
-150.0
-150.0
-150.0
-150.0
-150.0
-150.0
-150.0
-150.0
-150.0
-150.0
-150.0
-150.0
-150.0
-150.0
-138.74
-104.48
-62.44
-11.75
44.22
98.93
144.96
150.0
150.0
150.0
150.0
146.06
119.14
95.81
80.16
73.91
76.2
84.41
95.05
104.69
110.58
110.62
103.66
89.6
69.82
47.1
25.11
7.02
-5.76
-14.3
-21.55
-31.0
-44.92
-63.64
-85.65
-108.47
-129.36
-145.69
-150.0
-150.0
-141.77
-117.16
-81.39
-36.54
15.43
73.86
139.32
150.0
150.0
150.0
150.0
150.0
150.0
150.0
150.0
150.0
150.0
150.0
150.0
150.0
150.0
150.0
150.0
150.0
150.0
150.0
150.0
137.07
106.43
79.02
57.4
43.7
38.98
42.84
53.48
68.0
82.6
93.16
96.18
89.83
74.84
54.08
31.48
9.97
-9.62
-28.86
-50.54
-77.01
-108.98
-145.01
-150.0
-150.0
-150.0
-150.0
-150.0
-150.0
-150.0
-150.0
-150.0
-150.0
-150.0
-150.0
-150.0
-150.0
-150.0
-150.0
-150.0
-150.0
-150.0
-119.11
-21.08
63.61
123.0
150.0
150.0
144.76
127.13
111.7
101.09
93.38
84.47
70.54
49.61
21.93
-10.55
-43.78
-71.27
-84.11
-73.16
-32.77
35.49
121.03
150.0
150.0
150.0
150.0
150.0
150.0
150.0
150.0
150.0
150.0
139.97
119.65
100.17
81.72
64.46
48.29
32.98
18.16
3.28
-12.2
-28.75
-46.52
-65.08
-83.78
-102.02
-119.74
-137.37
-150.0
-150.0
-150.0
-150.0
-150.0
-150.0
-150.0
-150.0
-150.0
-150.0
-150.0
-128.49
-44.16
39.68
105.76
143.27
150.0
136.94
111.0
81.85
53.16
24.72
-4.7
-35.02
-64.23
-89.9
-111.1
-129.12
-146.96
-150.0
-150.0
-150.0
-150.0
-150.0
-150.0
-150.0
-150.0
-150.0
-150.0
-150.0
-150.0
-150.0
-150.0
-150.0
-150.0
-65.92
20.09
79.79
105.29
94.95
54.65
-3.01
-61.63
-106.13
-127.86
-127.48
-113.88
-99.22
-92.84
-96.52
-103.77
-103.1
-83.47
-39.01
28.55
110.61
150.0
150.0
150.0
150.0
150.0
150.0
150.0
150.0
130.4
104.97
110.21
141.77
150.0
150.0
150.0
150.0
150.0
150.0
141.61
99.84
63.59
32.42
3.77
-25.26
-57.12
-93.46
-134.29
-150.0
-150.0
-150.0
-150.0
-150.0
-150.0
-119.38
-67.33
-32.2
-19.34
-25.44
-41.44
-58.47
-72.51
-85.61
-103.48
-131.52
-150.0
-150.0
-150.0
-150.0
-150.0
-150.0
-150.0
-150.0
-150.0
-150.0
-150.0
-150.0
-150.0
-150.0
-150.0
-150.0
-150.0
-150.0
-150.0
-150.0
-150.0
-150.0
-150.0
-150.0
-150.0
-150.0
-150.0
-150.0
-150.0
-150.0
-150.0
-150.0
-150.0
-133.5
-108.71
-85.32
-63.13
-41.5
-19.79
2.3
24.46
45.86
65.51
82.59
96.79
108.3
117.66
125.44
131.89
136.9
140.2
141.67
141.72
141.36
141.98
144.87
150.0
150.0
150.0
150.0
150.0
150.0
150.0
150.0
150.0
150.0
150.0
150.0
150.0
150.0
150.0
150.0
150.0
150.0
150.0
150.0
150.0
150.0
150.0
150.0
150.0
150.0
150.0
150.0
150.0
150.0
150.0
150.0
150.0
150.0
150.0
136.75
69.91
11.02
-32.36
-54.62
-54.37
-35.21
-4.28
30.77
64.39
94.41
120.89
144.09
150.0
150.0
150.0
150.0
145.71
119.28
90.02
60.66
32.23
4.18
-24.89
-56.11
-89.77
-125.09
-150.0
-150.0
-150.0
-150.0
-150.0
-150.0
-150.0
-150.0
-150.0
-150.0
-150.0
-150.0
-150.0
-150.0
-112.18
-57.71
-19.82
-1.1
2.53
-0.35
-0.75
6.29
20.79
40.2
62.95
89.97
123.15
150.0
150.0
150.0
150.0
150.0
150.0
150.0
150.0
150.0
150.0
150.0
150.0
150.0
133.06
109.62
77.71
37.8
-3.71
-36.38
-50.76
-43.35
-19.52
7.93
24.35
19.44
-7.62
-47.75
-85.14
-103.62
-92.54
-50.54
13.98
86.33
150.0
150.0
150.0
150.0
150.0
150.0
149.17
124.76
100.47
79.32
67.48
71.4
93.13
127.25
150.0
150.0
150.0
150.0
133.3
101.33
77.32
63.37
55.79
48.49
36.79
19.39
-1.47
-21.9
-38.32
-48.74
-53.41
-54.13
-53.08
-51.92
-51.06
-49.72
-46.67
-41.12
-33.48
-25.59
-20.16
-19.91
-26.66
-40.76
-61.07
-85.78
-113.1
-142.11
-150.0
-150.0
-150.0
-150.0
-150.0
-150.0
-150.0
-150.0
-150.0
-150.0
-150.0
-150.0
-150.0
-150.0
-150.0
-150.0
-150.0
-150.0
-150.0
-150.0
-150.0
-150.0
-150.0
-150.0
-150.0
-150.0
-150.0
-150.0
-150.0
-150.0
-150.0
-150.0
-150.0
-150.0
-150.0
-150.0
-150.0
-150.0
-150.0
-150.0
-150.0
-150.0
-146.14
-133.55
-120.02
-105.57
-90.68
-76.09
-62.47
-50.23
-39.41
-29.76
-20.83
-12.21
-3.59
5.11
13.75
22.04
29.61
36.13
41.45
45.65
49.1
52.31
55.75
59.63
63.75
67.51
70.23
71.45
71.33
70.72
70.96
73.39
78.68
86.57
95.8
104.72
111.97
117.3
121.72
127.18
135.63
148.01
150.0
150.0
150.0
150.0
150.0
150.0
150.0
150.0
150.0
150.0
150.0
150.0
150.0
150.0
150.0
150.0
150.0
150.0
150.0
150.0
150.0
150.0
150.0
150.0
150.0
150.0
150.0
150.0
150.0
150.0
150.0
150.0
150.0
150.0
150.0
150.0
150.0
150.0
150.0
150.0
150.0
150.0
150.0
116.35
80.08
65.34
68.86
81.88
93.34
93.88
78.71
48.49
8.1
-35.85
-77.68
-114.24
-145.62
-150.0
-150.0
-150.0
-150.0
-150.0
-150.0
-150.0
-150.0
-150.0
-150.0
-150.0
-150.0
-150.0
-150.0
-150.0
-150.0
-150.0
-150.0
-150.0
-127.65
-86.19
-43.37
2.8
53.18
106.69
150.0
150.0
150.0
150.0
150.0
150.0
150.0
150.0
150.0
150.0
150.0
150.0
150.0
150.0
150.0
150.0
150.0
120.57
69.88
16.72
-40.13
-102.02
-150.0
-150.0
-150.0
-150.0
-150.0
-150.0
-150.0
-150.0
-150.0
-150.0
-150.0
-150.0
-150.0
-150.0
-116.48
-72.03
-31.17
6.52
43.11
81.2
122.99
150.0
150.0
150.0
150.0
150.0
150.0
150.0
150.0
150.0
150.0
150.0
150.0
150.0
150.0
150.0
150.0
150.0
150.0
150.0
112.9
74.77
37.76
4.38
-21.46
-36.59
-41.39
-41.22
-44.71
-59.86
-89.8
-131.18
-150.0
-150.0
-150.0
-150.0
-150.0
-150.0
-137.53
-95.19
-59.09
-33.22
-17.86
-10.05
-6.21
-4.97
-8.19
-20.07
-43.94
-79.29
-120.86
-150.0
-150.0
-150.0
-150.0
-150.0
-150.0
-150.0
-150.0
-150.0
-150.0
-150.0
-150.0
-150.0
-113.81
-53.36
-11.42
6.59
-2.4
-38.38
-97.13
-150.0
-150.0
-150.0
-150.0
-150.0
-150.0
-150.0
-150.0
-150.0
-150.0
-150.0
-150.0
-150.0
-150.0
-143.08
-122.58
-98.96
-72.46
-43.89
-14.49
14.18
40.95
65.59
89.23
113.78
141.51
150.0
150.0
150.0
150.0
150.0
150.0
150.0
150.0
150.0
150.0
150.0
150.0
150.0
150.0
150.0
150.0
150.0
150.0
150.0
150.0
148.49
144.25
142.78
141.3
138.02
132.52
125.74
119.73
116.63
118.36
125.92
139.26
150.0
150.0
150.0
150.0
150.0
150.0
150.0
150.0
115.8
76.93
44.07
21.15
8.87
4.46
2.09
-5.15
-23.1
-54.3
-96.74
-144.88
-150.0
-150.0
-150.0
-150.0
-150.0
-150.0
-150.0
-150.0
-150.0
-150.0
-150.0
-150.0
-150.0
-150.0
-141.33
-121.89
-106.86
-102.93
-115.36
-145.99
-150.0
-150.0
-150.0
-150.0
-150.0
-150.0
-150.0
-150.0
-150.0
-150.0
-150.0
-111.78
-71.43
-30.48
12.05
56.9
104.82
150.0
150.0
150.0
150.0
150.0
150.0
150.0
150.0
150.0
150.0
150.0
150.0
150.0
150.0
150.0
150.0
150.0
150.0
150.0
150.0
150.0
150.0
150.0
150.0
128.2
95.1
73.53
62.55
57.76
52.61
40.55
17.07
-18.65
-63.31
-110.7
-150.0
-150.0
-150.0
-150.0
-150.0
-150.0
-132.19
-104.36
-82.3
-69.05
-65.32
-68.35
-72.37
-70.69
-58.93
-37.85
-13.71
4.54
9.87
0.73
-18.34
-39.96
-58.26
-71.89
-83.81
-98.95
-120.74
-149.8
-150.0
-150.0
-150.0
-150.0
-150.0
-150.0
-150.0
-150.0
-150.0
-150.0
-150.0
-150.0
-150.0
-150.0
-150.0
-150.0
-150.0
-144.75
-86.53
-27.09
28.36
74.7
108.17
127.02
132.66
129.73
125.33
127.06
140.21
150.0
150.0
150.0
150.0
150.0
150.0
150.0
150.0
150.0
150.0
150.0
150.0
150.0
150.0
150.0
144.91
117.5
89.83
58.28
19.01
-29.18
-82.62
-132.83
-150.0
-150.0
-150.0
-150.0
-121.06
-92.96
-71.15
-52.67
-31.45
-3.53
29.15
59.07
77.41
79.57
67.81
49.47
32.24
19.42
8.72
-5.12
-25.8
-52.14
-77.81
-94.05
-93.48
-72.75
-33.9
16.7
69.86
115.86
146.3
150.0
142.6
109.53
62.25
7.94
-46.37
-95.03
-134.48
-150.0
-150.0
-150.0
-150.0
-150.0
-150.0
-150.0
-150.0
-150.0
-150.0
-150.0
-150.0
-150.0
-114.79
-56.81
3.87
61.29
109.07
141.84
150.0
150.0
146.74
136.64
135.08
147.99
150.0
150.0
150.0
150.0
150.0
150.0
150.0
150.0
150.0
150.0
150.0
150.0
150.0
150.0
150.0
150.0
150.0
150.0
150.0
150.0
150.0
143.87
107.95
80.17
65.87
67.46
82.87
105.4
126.34
138.24
137.93
127.19
110.98
94.41
80.29
68.65
57.89
46.86
35.8
26.21
19.54
16.11
14.83
13.88
11.55
6.94
0.4
-7.12
-14.51
-21.14
-27.03
-32.8
-39.37
-47.58
-58.01
-70.81
-85.82
-102.58
-120.56
-139.18
-150.0
-150.0
-150.0
-150.0
-150.0
-150.0
-150.0
-150.0
-150.0
-150.0
-150.0
-150.0
-150.0
-150.0
-150.0
-150.0
-150.0
-150.0
-150.0
-150.0
-150.0
-150.0
-150.0
-150.0
-150.0
-150.0
-150.0
-150.0
-150.0
-150.0
-150.0
-150.0
-124.6
-51.29
17.91
77.02
121.54
147.66
150.0
137.4
102.66
52.66
-8.06
-74.69
-142.51
-150.0
-150.0
-150.0
-150.0
-150.0
-150.0
-150.0
-150.0
-150.0
-150.0
-150.0
-134.8
-98.16
-61.72
-24.95
12.3
49.6
86.3
122.22
150.0
150.0
150.0
150.0
150.0
150.0
150.0
150.0
150.0
150.0
150.0
150.0
150.0
150.0
150.0
150.0
150.0
150.0
150.0
150.0
150.0
149.71
97.97
60.99
46.76
58.58
92.93
140.28
150.0
150.0
150.0
150.0
150.0
150.0
150.0
150.0
150.0
150.0
137.35
110.19
89.45
73.41
58.36
40.36
17.45
-9.74
-38.28
-64.42
-85.38
-100.39
-111.25
-121.29
-133.95
-150.0
-150.0
-150.0
-150.0
-150.0
-150.0
-150.0
-150.0
-150.0
-150.0
-150.0
-150.0
-150.0
-150.0
-150.0
-150.0
-150.0
-150.0
-150.0
-150.0
-150.0
-150.0
-150.0
-150.0
-150.0
-150.0
-150.0
-150.0
-150.0
-150.0
-150.0
-150.0
-150.0
-150.0
-150.0
-150.0
-150.0
-150.0
-150.0
-135.5
-95.44
-57.65
-19.09
22.72
69.01
120.14
150.0
150.0
150.0
150.0
150.0
150.0
150.0
150.0
150.0
150.0
133.64
108.05
108.53
127.42
150.0
150.0
150.0
150.0
150.0
139.22
102.87
62.36
20.77
-21.11
-64.52
-111.37
-150.0
-150.0
-150.0
-150.0
-150.0
-150.0
-150.0
-122.14
-58.17
0.24
45.33
71.54
76.45
62.22
34.75
0.74
-33.19
-63.9
-90.7
-114.26
-135.42
-150.0
-150.0
-150.0
-150.0
-150.0
-150.0
-150.0
-150.0
-150.0
-150.0
-127.46
-65.32
-6.84
43.61
79.42
94.73
86.96
59.61
22.37
-11.61
-30.7
-31.29
-13.18
16.38
49.62
82.29
115.18
150.0
150.0
150.0
150.0
150.0
150.0
150.0
150.0
150.0
150.0
150.0
150.0
150.0
150.0
150.0
117.89
46.79
-17.22
-65.28
-90.83
-91.3
-70.14
-32.04
13.51
55.76
86.01
100.74
102.45
97.78
93.37
91.3
90.89
87.88
78.9
63.7
44.94
26.41
10.99
0.31
-4.93
-3.58
3.86
14.38
22.24
20.69
5.32
-23.81
-62.66
-106.42
-150.0
-150.0
-150.0
-150.0
-150.0
-150.0
-150.0
-150.0
-150.0
-150.0
-150.0
-150.0
-150.0
-150.0
-150.0
-150.0
-150.0
-150.0
-150.0
-130.69
-90.93
-54.23
-20.77
8.32
30.72
44.04
47.61
43.5
36.31
31.46
33.08
42.7
59.45
81.13
105.47
130.83
150.0
150.0
150.0
150.0
150.0
150.0
150.0
150.0
150.0
150.0
150.0
150.0
150.0
150.0
150.0
150.0
150.0
150.0
150.0
150.0
150.0
150.0
150.0
150.0
150.0
150.0
150.0
150.0
150.0
116.41
72.49
26.86
-17.68
-58.62
-94.62
-125.58
-150.0
-150.0
-150.0
-150.0
-150.0
-150.0
-150.0
-150.0
-150.0
-150.0
-150.0
-101.68
-13.54
76.1
150.0
150.0
150.0
150.0
150.0
150.0
150.0
150.0
150.0
149.67
125.92
105.57
89.92
78.76
70.03
60.6
47.6
29.61
7.36
-16.35
-38.02
-54.63
-65.01
-70.35
-73.7
-78.83
-88.65
-103.98
-123.19
-142.98
-150.0
-150.0
-150.0
-150.0
-150.0
-150.0
-150.0
-150.0
-150.0
-150.0
-150.0
-150.0
-150.0
-150.0
-150.0
-150.0
-118.75
-41.2
13.7
39.99
40.22
22.49
-4.21
-33.65
-63.62
-94.78
-128.67
-150.0
-150.0
-150.0
-150.0
-150.0
-150.0
-150.0
-150.0
-150.0
-150.0
-150.0
-150.0
-150.0
-96.7
-34.97
13.52
48.99
76.49
104.24
140.09
150.0
150.0
150.0
150.0
150.0
150.0
150.0
150.0
150.0
150.0
150.0
134.47
100.93
68.42
37.81
9.62
-17.14
-44.71
-75.45
-110.72
-150.0
-150.0
-150.0
-150.0
-150.0
-150.0
-150.0
-150.0
-150.0
-150.0
-150.0
-150.0
-150.0
-150.0
-150.0
-150.0
-123.06
-92.0
-93.37
-125.38
-150.0
-150.0
-150.0
-150.0
-150.0
-150.0
-150.0
-120.15
-80.24
-44.79
-15.41
3.86
8.3
-3.89
-28.96
-58.34
-82.05
-93.39
-91.6
-81.28
-69.52
-62.2
-61.75
-67.14
-75.42
-83.54
-89.35
-91.84
-90.76
-86.42
-79.59
-71.27
-62.33
-53.34
-44.0
-33.29
-19.82
-2.47
18.89
43.34
68.97
93.65
115.84
135.4
150.0
150.0
150.0
150.0
150.0
150.0
150.0
150.0
150.0
150.0
150.0
150.0
119.27
20.23
-60.59
-114.44
-140.49
-144.38
-134.5
-118.11
-99.14
-78.16
-54.14
-26.49
3.92
35.47
66.81
98.31
131.8
150.0
150.0
150.0
150.0
150.0
150.0
150.0
150.0
150.0
150.0
150.0
150.0
150.0
150.0
150.0
150.0
150.0
150.0
150.0
150.0
150.0
150.0
150.0
150.0
150.0
150.0
150.0
150.0
150.0
150.0
149.22
109.46
66.55
21.12
-23.3
-60.1
-81.56
-82.35
-62.84
-29.96
5.12
31.58
43.16
39.94
26.8
9.97
-6.06
-19.81
-31.86
-43.12
-53.75
-63.3
-71.62
-79.47
-88.24
-98.89
-111.46
-124.8
-137.21
-147.55
-150.0
-150.0
-150.0
-150.0
-150.0
-150.0
-150.0
-150.0
-150.0
-150.0
-150.0
-150.0
-150.0
-150.0
-150.0
-150.0
-150.0
-150.0
-150.0
-150.0
-150.0
-150.0
-150.0
-150.0
-150.0
-150.0
-150.0
-150.0
-150.0
-150.0
-150.0
-150.0
-150.0
-150.0
-150.0
-150.0
-150.0
-141.34
-134.11
-134.33
-139.49
-145.73
-149.65
-149.52
-145.92
-140.9
-136.79
-134.97
-135.19
-135.75
-134.33
-129.11
-119.48
-106.26
-91.21
-76.21
-62.59
-50.67
-40.0
-29.76
-19.41
-9.01
0.7
8.65
13.8
15.52
13.76
8.94
1.75
-7.11
-17.13
-27.94
-39.28
-50.8
-62.05
-72.44
-81.34
-88.19
-92.57
-94.27
-93.26
-89.68
-83.72
-75.62
-65.58
-53.77
-40.35
-25.47
-9.35
7.66
25.08
42.36
58.92
74.3
88.14
100.23
110.47
118.73
124.81
128.46
129.49
127.92
124.17
119.06
113.75
109.47
107.23
107.61
110.64
116.07
123.58
133.16
145.18
150.0
150.0
150.0
150.0
150.0
150.0
150.0
150.0
150.0
150.0
150.0
150.0
150.0
150.0
150.0
150.0
150.0
150.0
150.0
150.0
150.0
150.0
150.0
150.0
150.0
150.0
150.0
150.0
150.0
150.0
150.0
150.0
150.0
150.0
150.0
150.0
150.0
150.0
139.36
121.57
107.13
95.19
84.76
75.06
65.83
57.2
49.53
43.01
37.53
32.61
27.61
21.95
15.38
8.01
0.3
-7.18
-13.9
-19.5
-23.91
-27.22
-29.64
-31.35
-32.51
-33.17
-33.35
-33.11
-32.52
-31.74
-30.91
-30.16
-29.64
-29.43
-29.66
-30.41
-31.69
-33.44
-35.45
-37.48
-39.26
-40.69
-41.86
-43.08
-44.74
-47.15
-50.41
-54.27
-58.29
-62.01
-65.31
-68.43
-71.97
-76.6
-82.64
-89.89
-97.55
-104.57
-110.17
-114.28
-117.76
-122.28
-129.38
-139.86
-150.0
-150.0
-150.0
-150.0
-150.0
-150.0
-150.0
-150.0
-150.0
-150.0
-150.0
-150.0
-150.0
-150.0
-150.0
-150.0
-132.55
-62.27
-0.87
41.01
59.02
56.33
41.2
22.23
4.43
-12.14
-30.4
-53.73
-84.01
-121.68
-150.0
-150.0
-150.0
-150.0
-150.0
-150.0
-150.0
-150.0
-150.0
-150.0
-150.0
-150.0
-150.0
-150.0
-150.0
-150.0
-150.0
-150.0
-150.0
-150.0
-150.0
-150.0
-150.0
-150.0
-150.0
-150.0
-150.0
-150.0
-150.0
-150.0
-150.0
-150.0
-150.0
-150.0
-150.0
-150.0
-150.0
-150.0
-132.92
-110.65
-92.82
-79.86
-69.9
-60.15
-48.38
-34.06
-18.31
-3.17
9.58
19.31
26.9
34.61
44.98
59.9
79.72
102.96
126.97
148.86
150.0
150.0
150.0
150.0
150.0
150.0
150.0
150.0
150.0
150.0
150.0
150.0
150.0
150.0
150.0
150.0
150.0
150.0
150.0
150.0
150.0
150.0
150.0
150.0
150.0
150.0
150.0
150.0
150.0
150.0
150.0
150.0
150.0
150.0
150.0
150.0
150.0
133.98
104.69
80.16
61.79
49.78
42.24
35.06
22.48
-1.15
-39.34
-90.14
-144.78
-150.0
-150.0
-150.0
-150.0
-117.68
-77.47
-56.33
-55.85
-68.43
-83.22
-93.53
-100.65
-112.02
-136.35
-150.0
-150.0
-150.0
-150.0
-150.0
-150.0
-150.0
-150.0
-150.0
-150.0
-150.0
-150.0
-150.0
-150.0
-150.0
-150.0
-150.0
-150.0
-150.0
-150.0
-150.0
-137.43
-105.65
-71.18
-37.21
-4.51
27.98
61.82
97.63
134.62
150.0
150.0
150.0
150.0
150.0
150.0
150.0
150.0
150.0
150.0
150.0
150.0
150.0
150.0
150.0
150.0
150.0
150.0
150.0
150.0
150.0
150.0
150.0
150.0
150.0
150.0
150.0
150.0
150.0
150.0
150.0
138.88
121.48
106.36
93.89
83.16
72.33
59.56
44.09
26.63
8.88
-7.45
-21.68
-34.56
-47.84
-63.34
-82.03
-103.38
-125.53
-145.97
-150.0
-150.0
-150.0
-150.0
-150.0
-150.0
-150.0
-150.0
-150.0
-150.0
-150.0
-150.0
-150.0
-150.0
-150.0
-150.0
-150.0
-150.0
-150.0
-150.0
-150.0
-150.0
-150.0
-150.0
-150.0
-150.0
-150.0
-150.0
-150.0
-150.0
-150.0
-150.0
-150.0
-150.0
-150.0
-150.0
-150.0
-129.83
-87.12
-51.94
-30.14
-24.32
-32.02
-46.2
-58.11
-61.07
-53.11
-36.98
-17.83
-0.04
14.97
28.57
43.28
60.57
79.9
99.23
116.78
132.19
146.69
150.0
150.0
150.0
150.0
150.0
150.0
150.0
150.0
150.0
150.0
150.0
150.0
150.0
150.0
150.0
150.0
150.0
150.0
150.0
150.0
150.0
150.0
150.0
150.0
150.0
150.0
150.0
150.0
150.0
150.0
150.0
150.0
150.0
150.0
150.0
118.39
67.22
16.02
-35.19
-89.14
-148.34
-150.0
-150.0
-150.0
-150.0
-150.0
-150.0
-150.0
-150.0
-150.0
-150.0
-97.52
-36.99
28.21
99.34
150.0
150.0
150.0
150.0
150.0
150.0
150.0
150.0
150.0
150.0
150.0
150.0
150.0
150.0
150.0
150.0
150.0
150.0
150.0
150.0
150.0
120.82
89.32
62.18
40.32
22.55
6.06
-12.14
-34.3
-61.08
-91.53
-123.75
-150.0
-150.0
-150.0
-150.0
-150.0
-150.0
-150.0
-150.0
-150.0
-150.0
-150.0
-150.0
-150.0
-150.0
-150.0
-150.0
-150.0
-150.0
-150.0
-150.0
-150.0
-150.0
-150.0
-150.0
-150.0
-123.74
-74.98
-28.48
17.31
64.05
112.98
150.0
150.0
150.0
150.0
150.0
150.0
150.0
150.0
150.0
150.0
150.0
150.0
150.0
150.0
150.0
150.0
150.0
150.0
150.0
150.0
150.0
150.0
150.0
150.0
150.0
150.0
123.62
90.24
57.41
25.39
-6.28
-38.56
-72.58
-108.9
-147.44
-150.0
-150.0
-150.0
-150.0
-150.0
-150.0
-150.0
-150.0
-150.0
-150.0
-150.0
-150.0
-150.0
-150.0
-150.0
-150.0
-150.0
-150.0
-150.0
-150.0
-150.0
-150.0
-150.0
-150.0
-150.0
-150.0
-150.0
-150.0
-150.0
-150.0
-150.0
-150.0
-150.0
-140.31
-127.95
-118.56
-112.45
-109.05
-107.01
-104.69
-100.92
-95.37
-88.64
-81.84
-75.93
-71.12
-66.56
-60.63
-51.48
-37.87
-19.73
1.81
24.88
47.76
69.56
90.69
112.49
136.54
150.0
150.0
150.0
150.0
150.0
150.0
150.0
150.0
150.0
150.0
150.0
150.0
150.0
150.0
150.0
150.0
150.0
150.0
150.0
150.0
150.0
150.0
150.0
150.0
150.0
150.0
150.0
150.0
150.0
150.0
150.0
150.0
150.0
150.0
150.0
150.0
150.0
124.26
100.45
74.38
42.61
5.13
-34.94
-72.65
-103.51
-125.66
-140.7
-150.0
-150.0
-150.0
-150.0
-150.0
-150.0
-150.0
-150.0
-150.0
-150.0
-150.0
-150.0
-150.0
-148.12
-117.66
-118.46
-142.81
-150.0
-150.0
-150.0
-150.0
-150.0
-150.0
-123.18
-107.08
-109.05
-130.94
-150.0
-150.0
-150.0
-150.0
-150.0
-150.0
-150.0
-150.0
-150.0
-146.0
-70.37
1.07
67.72
133.12
150.0
150.0
150.0
150.0
150.0
150.0
150.0
150.0
150.0
150.0
150.0
150.0
150.0
150.0
150.0
150.0
150.0
150.0
150.0
150.0
150.0
147.24
116.58
96.73
90.69
95.65
104.91
111.27
110.36
101.98
89.1
75.47
63.48
53.3
43.39
32.5
20.64
9.26
0.27
-5.28
-7.88
-9.29
-11.54
-16.08
-22.84
-30.51
-37.35
-42.2
-45.16
-47.78
-52.41
-61.25
-75.52
-95.03
-118.43
-143.48
-150.0
-150.0
-150.0
-150.0
-150.0
-150.0
-150.0
-150.0
-150.0
-150.0
-150.0
-150.0
-150.0
-150.0
-150.0
-150.0
-150.0
-150.0
-150.0
-150.0
-150.0
-150.0
-150.0
-150.0
-150.0
-150.0
-150.0
-150.0
-150.0
-150.0
-150.0
-150.0
-150.0
-150.0
-150.0
-150.0
-150.0
-150.0
-150.0
-150.0
-150.0
-150.0
-150.0
-150.0
-150.0
-150.0
-150.0
-130.6
-94.41
-62.99
-39.87
-26.33
-20.53
-18.29
-14.95
-7.54
4.11
17.69
30.11
39.35
45.42
50.0
55.28
62.55
71.71
81.59
90.84
98.88
106.12
113.78
123.33
135.6
150.0
150.0
150.0
150.0
150.0
150.0
150.0
150.0
150.0
150.0
150.0
150.0
150.0
150.0
150.0
150.0
150.0
150.0
150.0
150.0
150.0
150.0
150.0
139.8
80.32
33.05
3.46
-5.66
4.03
27.28
57.99
92.11
127.92
150.0
150.0
150.0
150.0
150.0
150.0
118.41
52.03
-17.75
-86.88
-150.0
-150.0
-150.0
-150.0
-150.0
-150.0
-150.0
-150.0
-150.0
-150.0
-150.0
-150.0
-149.6
-138.79
-148.42
-150.0
-150.0
-150.0
-150.0
-150.0
-150.0
-150.0
-150.0
-150.0
-131.87
-104.03
-74.66
-44.25
-14.89
11.0
32.3
50.24
67.61
87.76
112.77
143.68
150.0
150.0
150.0
150.0
150.0
150.0
150.0
150.0
150.0
150.0
150.0
150.0
143.05
111.2
77.37
39.05
-3.03
-47.06
-92.67
-141.46
-150.0
-150.0
-150.0
-150.0
-150.0
-150.0
-150.0
-150.0
-150.0
-150.0
-150.0
-150.0
-137.29
-114.5
-88.77
-59.07
-24.53
14.75
57.98
103.33
148.59
150.0
150.0
150.0
150.0
150.0
150.0
150.0
150.0
150.0
150.0
150.0
150.0
150.0
150.0
150.0
150.0
150.0
150.0
150.0
150.0
150.0
150.0
150.0
150.0
115.85
66.87
35.04
27.34
44.25
78.26
115.5
141.27
146.18
129.75
99.12
64.09
31.7
3.18
-24.86
-56.92
-95.44
-139.84
-150.0
-150.0
-150.0
-150.0
-150.0
-150.0
-150.0
-150.0
-150.0
-150.0
-150.0
-138.84
-134.64
-142.18
-150.0
-150.0
-150.0
-150.0
-150.0
-150.0
-150.0
-150.0
-150.0
-150.0
-150.0
-150.0
-150.0
-150.0
-150.0
-150.0
-150.0
-150.0
-150.0
-150.0
-150.0
-150.0
-150.0
-118.25
-88.04
-67.45
-59.56
-65.17
-81.32
-102.31
-121.6
-134.38
-139.19
-137.66
-132.72
-127.11
-122.3
-118.75
-116.62
-116.01
-116.7
-117.62
-116.87
-112.42
-103.17
-89.35
-72.43
-54.52
-37.13
-20.57
-3.94
14.18
34.84
57.93
82.24
106.0
127.86
147.73
150.0
150.0
150.0
150.0
150.0
150.0
150.0
150.0
150.0
150.0
150.0
150.0
150.0
150.0
150.0
150.0
150.0
150.0
150.0
150.0
149.6
95.86
72.98
83.97
122.96
150.0
150.0
150.0
150.0
150.0
150.0
150.0
150.0
150.0
150.0
150.0
150.0
150.0
150.0
98.24
35.66
-23.73
-73.45
-107.13
-119.31
-108.09
-77.6
-38.58
-4.56
13.77
13.38
-0.27
-16.35
-23.39
-13.86
14.51
58.87
113.02
150.0
150.0
150.0
150.0
150.0
150.0
130.65
76.88
33.88
8.73
4.27
19.56
50.25
90.07
132.03
150.0
150.0
150.0
150.0
150.0
150.0
150.0
150.0
150.0
150.0
150.0
145.96
142.91
139.88
135.02
128.28
121.55
116.97
115.58
116.99
119.67
122.28
124.15
125.61
127.19
128.97
130.17
129.55
125.92
118.68
108.2
95.55
81.96
68.18
54.24
39.47
22.97
4.27
-16.33
-37.76
-58.63
-77.86
-95.25
-111.5
-127.93
-145.65
-150.0
-150.0
-150.0
-150.0
-150.0
-150.0
-150.0
-150.0
-150.0
-150.0
-150.0
-150.0
-150.0
-150.0
-150.0
-150.0
-150.0
-150.0
-150.0
-150.0
-150.0
-150.0
-150.0
-150.0
-150.0
-150.0
-150.0
-150.0
-150.0
-150.0
-150.0
-150.0
-150.0
-150.0
-150.0
-150.0
-150.0
-150.0
-120.08
-76.78
-24.0
39.28
110.18
150.0
150.0
150.0
150.0
150.0
150.0
150.0
89.39
27.26
-18.98
-44.35
-47.54
-30.24
3.88
50.58
106.39
150.0
150.0
150.0
150.0
150.0
150.0
150.0
150.0
150.0
150.0
150.0
150.0
150.0
150.0
108.22
57.7
3.63
-53.03
-110.54
-150.0
-150.0
-150.0
-150.0
-150.0
-150.0
-115.57
-71.6
-50.75
-60.11
-99.36
-150.0
-150.0
-150.0
-150.0
-150.0
-150.0
-150.0
-150.0
-150.0
-150.0
-150.0
-150.0
-150.0
-150.0
-150.0
-150.0
-150.0
-150.0
-150.0
-150.0
-150.0
-150.0
-150.0
-122.45
-96.63
-76.69
-60.71
-45.35
-27.15
-4.05
23.71
53.72
82.55
107.51
128.08
146.54
150.0
150.0
150.0
150.0
150.0
150.0
150.0
150.0
150.0
150.0
150.0
150.0
150.0
150.0
150.0
150.0
150.0
150.0
150.0
150.0
150.0
150.0
150.0
150.0
150.0
150.0
150.0
150.0
150.0
150.0
150.0
150.0
150.0
150.0
150.0
137.53
66.1
-6.45
-70.74
-118.26
-143.7
-146.84
-133.41
-114.04
-100.68
-102.59
-123.53
-150.0
-150.0
-150.0
-150.0
-150.0
-150.0
-150.0
-150.0
-150.0
-150.0
-150.0
-150.0
-150.0
-150.0
-150.0
-150.0
-150.0
-104.2
-51.47
1.66
55.08
109.58
150.0
150.0
150.0
150.0
150.0
150.0
150.0
150.0
150.0
150.0
150.0
150.0
150.0
150.0
150.0
150.0
150.0
150.0
150.0
150.0
150.0
150.0
150.0
150.0
150.0
149.38
119.89
93.65
70.82
49.78
27.78
2.3
-27.95
-61.98
-96.66
-127.85
-150.0
-150.0
-150.0
-150.0
-150.0
-150.0
-150.0
-150.0
-150.0
-150.0
-150.0
-150.0
-150.0
-150.0
-150.0
-150.0
-150.0
-150.0
-150.0
-150.0
-150.0
-150.0
-150.0
-150.0
-150.0
-150.0
-150.0
-150.0
-150.0
-150.0
-150.0
-150.0
-150.0
-150.0
-150.0
-150.0
-150.0
-150.0
-150.0
-150.0
-150.0
-150.0
-150.0
-150.0
-150.0
-135.34
-90.14
-57.41
-34.62
-18.71
-12.02
-12.82
-18.47
-25.56
-30.63
-31.2
-26.07
-14.83
2.89
25.78
51.09
77.44
105.11
135.3
150.0
150.0
150.0
150.0
150.0
150.0
150.0
150.0
150.0
150.0
150.0
150.0
150.0
150.0
150.0
150.0
150.0
150.0
150.0
150.0
150.0
150.0
150.0
150.0
150.0
150.0
144.35
112.86
114.98
144.68
150.0
150.0
150.0
150.0
150.0
150.0
150.0
149.26
105.42
66.19
32.12
2.13
-25.86
-53.37
-81.15
-109.26
-137.65
-150.0
-150.0
-150.0
-150.0
-150.0
-150.0
-150.0
-150.0
-150.0
-150.0
-150.0
-150.0
-150.0
-150.0
-150.0
-150.0
-150.0
-150.0
-150.0
-150.0
-150.0
-150.0
-150.0
-150.0
-119.95
-91.25
-61.68
-27.25
17.51
76.81
150.0
150.0
150.0
150.0
150.0
150.0
150.0
150.0
150.0
150.0
150.0
150.0
150.0
91.86
3.28
-92.07
-150.0
-150.0
-150.0
-150.0
-150.0
-150.0
-150.0
-150.0
-150.0
-150.0
-146.13
-96.49
-36.41
34.17
109.33
150.0
150.0
150.0
150.0
150.0
150.0
150.0
150.0
150.0
150.0
150.0
129.13
79.39
19.02
-53.24
-137.11
-150.0
-150.0
-150.0
-150.0
-150.0
-150.0
-150.0
-150.0
-150.0
-150.0
-150.0
-150.0
-150.0
-150.0
-150.0
-150.0
-150.0
-150.0
-150.0
-132.85
-97.92
-61.96
-28.25
0.46
23.39
42.33
61.79
85.12
112.53
142.89
150.0
150.0
150.0
150.0
150.0
150.0
150.0
150.0
150.0
150.0
150.0
150.0
150.0
150.0
150.0
150.0
150.0
150.0
150.0
150.0
150.0
150.0
150.0
150.0
150.0
150.0
150.0
150.0
150.0
150.0
150.0
150.0
150.0
150.0
150.0
150.0
150.0
150.0
150.0
150.0
132.24
112.75
94.22
77.28
61.94
47.62
33.35
18.18
1.49
-16.82
-36.27
-56.08
-75.42
-93.84
-111.42
-128.82
-147.04
-150.0
-150.0
-150.0
-150.0
-150.0
-150.0
-150.0
-150.0
-150.0
-150.0
-150.0
-150.0
-150.0
-150.0
-150.0
-150.0
-150.0
-150.0
-150.0
-150.0
-150.0
-150.0
-150.0
-150.0
-150.0
-150.0
-150.0
-150.0
-150.0
-150.0
-150.0
-150.0
-150.0
-150.0
-150.0
-150.0
-150.0
-150.0
-150.0
-150.0
-114.24
-64.42
-16.96
26.3
64.5
98.11
129.05
150.0
150.0
150.0
150.0
150.0
150.0
150.0
150.0
150.0
150.0
150.0
102.91
33.52
-13.91
-38.11
-41.72
-28.7
-2.68
33.18
76.1
123.13
150.0
150.0
150.0
150.0
150.0
150.0
150.0
150.0
150.0
150.0
150.0
150.0
150.0
150.0
150.0
150.0
128.79
104.39
103.97
125.41
150.0
150.0
150.0
150.0
119.78
69.16
17.71
-30.36
-74.48
-115.25
-150.0
-150.0
-150.0
-150.0
-150.0
-150.0
-150.0
-150.0
-150.0
-150.0
-150.0
-150.0
-150.0
-150.0
-150.0
-150.0
-150.0
-150.0
-150.0
-150.0
-150.0
-150.0
-150.0
-134.6
-102.03
-66.75
-28.13
13.12
54.78
94.18
129.48
150.0
150.0
150.0
150.0
150.0
150.0
150.0
150.0
150.0
150.0
150.0
150.0
150.0
150.0
150.0
150.0
150.0
150.0
150.0
126.88
46.17
-34.48
-106.93
-150.0
-150.0
-150.0
-150.0
-150.0
-150.0
-150.0
-146.67
-145.85
-149.84
-150.0
-150.0
-150.0
-150.0
-150.0
-150.0
-150.0
-150.0
-150.0
-150.0
-150.0
-150.0
-150.0
-150.0
-150.0
-150.0
-150.0
-150.0
-150.0
-150.0
-150.0
-150.0
-150.0
-150.0
-150.0
-150.0
-147.79
-138.14
-129.42
-121.33
-112.72
-102.24
-89.07
-73.51
-57.03
-41.58
-28.6
-18.22
-8.98
1.73
16.59
37.13
63.08
92.43
122.3
150.0
150.0
150.0
150.0
150.0
150.0
150.0
150.0
150.0
150.0
150.0
150.0
150.0
150.0
150.0
150.0
150.0
150.0
150.0
150.0
150.0
150.0
150.0
150.0
150.0
150.0
150.0
150.0
150.0
150.0
150.0
150.0
150.0
150.0
150.0
150.0
150.0
150.0
147.35
123.45
97.76
73.02
51.21
32.58
15.4
-2.91
-25.3
-53.14
-85.49
-120.84
-150.0
-150.0
-150.0
-150.0
-150.0
-150.0
-150.0
-150.0
-150.0
-150.0
-150.0
-150.0
-150.0
-150.0
-150.0
-150.0
-150.0
-150.0
-150.0
-150.0
-150.0
-150.0
-150.0
-150.0
-150.0
-150.0
-150.0
-150.0
-150.0
-150.0
-150.0
-116.77
-79.86
-40.85
-0.51
39.34
77.4
113.44
148.31
150.0
150.0
150.0
150.0
150.0
150.0
150.0
150.0
150.0
150.0
150.0
150.0
150.0
150.0
150.0
150.0
150.0
150.0
150.0
150.0
150.0
150.0
150.0
150.0
150.0
150.0
150.0
150.0
150.0
150.0
150.0
150.0
150.0
132.46
106.18
75.99
44.1
13.18
-14.81
-39.2
-60.5
-82.79
-109.59
-141.93
-150.0
-150.0
-150.0
-150.0
-150.0
-150.0
-150.0
-150.0
-150.0
-150.0
-150.0
-150.0
-150.0
-150.0
-150.0
-150.0
-150.0
-150.0
-150.0
-150.0
-150.0
-150.0
-150.0
-150.0
-150.0
-150.0
-150.0
-150.0
-150.0
-52.05
67.55
150.0
150.0
150.0
150.0
150.0
150.0
150.0
150.0
150.0
150.0
150.0
150.0
150.0
150.0
150.0
150.0
150.0
135.75
119.66
108.96
100.37
91.6
81.75
72.83
68.02
71.13
84.94
110.97
149.86
150.0
150.0
150.0
150.0
150.0
150.0
150.0
150.0
150.0
150.0
150.0
150.0
150.0
150.0
150.0
150.0
150.0
150.0
112.86
59.88
0.21
-58.19
-107.23
-141.28
-150.0
-150.0
-150.0
-150.0
-149.2
-139.92
-129.75
-120.05
-112.21
-107.16
-104.49
-102.64
-99.67
-94.08
-85.65
-75.48
-65.46
-57.23
-51.6
-48.24
-45.95
-43.2
-38.9
-32.76
-25.37
-17.88
-11.38
-6.47
-3.06
-0.53
1.91
4.89
8.53
12.48
16.06
18.63
19.71
19.25
17.55
15.06
12.11
8.95
5.68
2.27
-1.24
-4.8
-8.18
-11.16
-13.53
-15.2
-16.14
-16.43
-16.09
-15.18
-13.68
-11.57
-8.82
-5.53
-1.94
1.6
4.7
6.99
8.18
8.0
6.32
3.03
-2.02
-9.0
-18.07
-29.17
-41.97
-54.38
-65.85
-75.71
-83.27
-88.28
-90.99
-92.02
-92.02
-91.29
-91.13
-90.04
-87.02
-81.57
-74.08
-65.73
-58.17
-52.93
-50.78
-51.48
-53.9
-56.94
-59.57
-61.67
-63.95
-67.5
-73.47
-82.82
-96.3
-113.97
-134.78
-150.0
-150.0
-150.0
-150.0
-146.58
-116.87
-86.6
-63.35
-52.01
-53.01
-63.47
-79.2
-96.63
-113.74
-129.53
-143.09
-150.0
-150.0
-150.0
-150.0
-144.81
-134.78
-124.84
-115.81
-107.49
-98.92
-89.2
-77.68
-64.6
-50.8
-37.2
-24.24
-11.62
1.46
15.83
31.79
49.07
66.63
83.23
98.0
110.76
122.04
132.62
143.08
150.0
150.0
150.0
150.0
150.0
150.0
150.0
150.0
150.0
150.0
150.0
150.0
150.0
150.0
150.0
150.0
150.0
150.0
150.0
119.58
62.16
20.78
-2.54
-8.7
-0.08
20.1
48.19
80.48
113.79
146.45
150.0
150.0
150.0
150.0
150.0
150.0
150.0
150.0
150.0
150.0
150.0
150.0
150.0
150.0
150.0
150.0
150.0
131.37
101.56
76.76
54.42
29.98
-1.23
-42.21
-92.8
-149.94
-150.0
-150.0
-150.0
-150.0
-150.0
-150.0
-150.0
-150.0
-150.0
-146.53
-119.35
-111.68
-119.48
-135.85
-150.0
-150.0
-150.0
-150.0
-150.0
-150.0
-150.0
-150.0
-150.0
-144.76
-94.95
-50.29
-7.35
41.87
104.26
150.0
150.0
150.0
150.0
150.0
150.0
150.0
150.0
150.0
150.0
150.0
150.0
150.0
130.11
96.23
70.75
53.03
38.42
20.33
-6.57
-44.23
-91.17
-143.06
-150.0
-150.0
-150.0
-150.0
-150.0
-150.0
-150.0
-150.0
-150.0
-150.0
-150.0
-150.0
-150.0
-150.0
-150.0
-150.0
-150.0
-150.0
-150.0
-150.0
-150.0
-150.0
-150.0
-150.0
-150.0
-150.0
-150.0
-150.0
-150.0
-150.0
-150.0
-150.0
-150.0
-150.0
-150.0
-150.0
-150.0
-150.0
-150.0
-150.0
-146.47
-105.16
-67.51
-36.39
-12.56
5.73
21.91
39.98
63.15
92.83
128.26
150.0
150.0
150.0
150.0
150.0
150.0
150.0
148.67
126.38
118.55
124.83
140.45
150.0
150.0
150.0
150.0
150.0
150.0
150.0
150.0
150.0
150.0
150.0
150.0
150.0
150.0
150.0
150.0
150.0
150.0
150.0
150.0
150.0
150.0
150.0
150.0
150.0
150.0
150.0
150.0
150.0
137.07
94.22
54.32
16.29
-21.37
-58.72
-93.22
-120.41
-135.0
-130.99
-107.0
-67.88
-23.31
15.91
41.62
50.47
43.55
11.75
-42.93
-108.76
-150.0
-150.0
-150.0
-150.0
-150.0
-150.0
-150.0
-150.0
-150.0
-150.0
-150.0
-150.0
-150.0
-150.0
-150.0
-150.0
-150.0
-150.0
-150.0
-150.0
-150.0
-150.0
-150.0
-150.0
-150.0
-150.0
-150.0
-150.0
-150.0
-150.0
-150.0
-150.0
-128.38
-96.08
-63.81
-33.49
-5.88
19.04
41.73
62.52
81.33
97.55
110.03
117.86
120.45
117.55
109.04
95.01
76.06
53.55
29.77
7.32
-11.37
-24.74
-32.55
-35.78
-36.04
-34.56
-31.45
-25.5
-14.89
2.47
28.35
63.72
107.81
150.0
150.0
150.0
150.0
150.0
150.0
106.84
27.21
-41.61
-86.67
-103.5
-96.47
-75.44
-51.18
-31.68
-20.92
-19.57
-26.63
-40.45
-58.91
-79.33
-98.59
-113.65
-122.45
-124.61
-121.0
-112.86
-101.21
-85.85
-65.27
-36.95
1.65
51.11
107.86
150.0
150.0
150.0
150.0
150.0
85.93
19.86
-30.36
-57.1
-62.63
-56.17
-48.24
-45.52
-49.1
-56.13
-63.07
-68.3
-72.46
-76.96
-82.22
-86.89
-88.25
-83.82
-72.59
-55.49
-35.1
-14.49
4.0
19.63
32.57
44.28
56.47
70.47
86.79
105.07
124.3
143.27
150.0
150.0
150.0
150.0
150.0
150.0
150.0
150.0
150.0
150.0
150.0
150.0
150.0
150.0
150.0
150.0
150.0
150.0
150.0
150.0
150.0
150.0
150.0
150.0
150.0
148.08
144.47
143.73
138.45
124.95
99.77
61.15
11.11
-43.76
-93.6
-128.99
-139.18
-133.46
-121.69
-116.52
-127.39
-150.0
-150.0
-150.0
-150.0
-150.0
-150.0
-150.0
-108.71
-56.24
-2.35
55.68
119.49
137.34
150.0
150.0
150.0
150.0
146.36
114.07
83.69
60.84
46.64
45.2
41.7
30.31
9.25
-17.72
-42.35
-55.26
-49.84
-24.83
21.49
74.89
126.87
150.0
150.0
150.0
150.0
150.0
150.0
150.0
150.0
142.26
116.11
93.08
73.64
55.91
36.14
10.27
-22.37
-63.39
-109.44
-150.0
-150.0
-150.0
-150.0
-150.0
-150.0
-150.0
-150.0
-150.0
-150.0
-150.0
-150.0
-150.0
-150.0
-150.0
-150.0
-150.0
-150.0
-150.0
-150.0
-150.0
-150.0
-124.83
-74.56
-25.03
20.37
57.4
81.95
91.82
88.37
76.86
64.47
57.46
58.54
66.38
77.48
88.86
100.1
113.35
131.55
150.0
150.0
150.0
150.0
150.0
150.0
150.0
150.0
150.0
150.0
150.0
150.0
150.0
150.0
137.29
108.38
84.11
65.26
50.16
35.1
15.94
-10.14
-43.63
-83.04
-126.34
-150.0
-150.0
-150.0
-150.0
-150.0
-150.0
-150.0
-150.0
-150.0
-150.0
-150.0
-150.0
-150.0
-150.0
-128.96
-81.74
-31.3
20.29
68.03
105.95
129.23
136.12
128.58
111.67
91.8
74.75
63.97
60.18
61.75
65.75
68.99
68.95
64.49
56.71
49.26
47.63
57.28
80.94
116.71
150.0
150.0
150.0
150.0
150.0
150.0
150.0
150.0
140.53
118.54
97.77
77.35
55.79
31.26
2.62
-29.4
-61.45
-88.03
-103.49
-104.67
-92.91
-74.4
-58.23
-52.89
-62.53
-84.75
-111.03
-129.99
-132.05
-113.36
-77.23
-32.41
10.61
43.63
62.95
69.49
66.91
59.33
49.73
39.62
29.63
20.44
13.25
9.34
9.39
12.59
16.71
18.63
15.64
6.38
-8.54
-27.08
-46.85
-66.33
-85.33
-104.59
-124.85
-145.96
-150.0
-150.0
-150.0
-150.0
-150.0
-150.0
-130.6
-84.01
-31.65
19.23
61.0
88.2
99.95
100.88
99.4
104.46
121.33
148.92
150.0
150.0
150.0
150.0
150.0
105.33
49.29
-0.3
-35.94
-55.42
-62.25
-64.28
-70.65
-87.9
-116.5
-149.99
-150.0
-150.0
-150.0
-149.59
-112.03
-76.89
-52.52
-41.31
-39.77
-41.05
-38.22
-26.76
-5.67
22.89
54.85
85.56
111.18
129.71
141.04
146.16
146.12
141.07
130.24
112.65
88.26
57.94
22.89
-16.21
-59.14
-105.18
-150.0
-150.0
-150.0
-150.0
-150.0
-150.0
-150.0
-150.0
-150.0
-150.0
-136.88
-104.75
-69.85
-33.06
5.54
47.01
92.77
143.22
150.0
150.0
150.0
150.0
150.0
150.0
150.0
150.0
150.0
150.0
150.0
150.0
150.0
150.0
150.0
112.09
67.63
27.17
-10.1
-47.16
-87.64
-134.02
-150.0
-150.0
-150.0
-150.0
-150.0
-150.0
-150.0
-150.0
-150.0
-150.0
-93.7
-32.21
25.53
75.33
112.76
135.0
142.35
138.55
128.98
118.25
108.05
96.66
80.25
54.86
18.2
-29.99
-88.17
-150.0
-150.0
-150.0
-150.0
-150.0
-150.0
-150.0
-150.0
-150.0
-150.0
-106.66
-60.62
-19.59
20.1
61.25
104.98
150.0
150.0
150.0
150.0
150.0
150.0
150.0
150.0
150.0
150.0
150.0
150.0
150.0
150.0
150.0
131.34
90.0
48.77
8.25
-32.19
-74.12
-119.48
-150.0
-150.0
-150.0
-150.0
-150.0
-150.0
-150.0
-150.0
-150.0
-150.0
-150.0
-129.78
-73.82
-25.51
13.44
42.48
62.64
76.37
86.38
93.8
96.8
90.66
69.79
30.82
-24.86
-90.11
-150.0
-150.0
-150.0
-150.0
-150.0
-150.0
-101.51
-44.74
10.5
63.11
113.81
150.0
150.0
150.0
150.0
150.0
150.0
150.0
150.0
150.0
150.0
150.0
150.0
150.0
150.0
150.0
150.0
150.0
150.0
150.0
150.0
126.25
83.38
40.33
-0.84
-37.76
-69.15
-95.59
-119.27
-143.13
-150.0
-150.0
-150.0
-150.0
-150.0
-150.0
-150.0
-150.0
-150.0
-150.0
-150.0
-150.0
-150.0
-146.87
-74.88
-5.36
56.76
105.15
134.23
141.51
129.07
102.43
67.98
30.35
-8.91
-50.74
-97.32
-150.0
-150.0
-150.0
-150.0
-150.0
-150.0
-150.0
-150.0
-150.0
-150.0
-150.0
-150.0
-150.0
-115.21
-74.08
-36.21
-2.34
27.73
56.14
87.04
125.31
150.0
150.0
150.0
150.0
150.0
150.0
150.0
150.0
150.0
150.0
150.0
150.0
112.17
62.91
10.57
-46.38
-106.67
-150.0
-150.0
-150.0
-150.0
-150.0
-150.0
-150.0
-150.0
-150.0
-120.5
-64.44
-8.26
44.69
90.19
123.91
142.52
144.53
130.4
101.9
61.58
13.02
-38.73
-86.85
-123.85
-143.85
-144.77
-129.21
-102.99
-72.24
-40.65
-8.47
26.51
66.78
113.16
150.0
150.0
150.0
150.0
150.0
150.0
150.0
150.0
150.0
150.0
150.0
150.0
150.0
150.0
106.86
56.2
14.8
-16.47
-40.47
-62.66
-88.67
-122.16
-150.0
-150.0
-150.0
-150.0
-150.0
-150.0
-150.0
-150.0
-150.0
-150.0
-150.0
-150.0
-150.0
-150.0
-150.0
-117.38
-65.23
-14.29
34.48
79.11
117.16
146.43
150.0
150.0
150.0
150.0
135.12
108.88
80.35
51.97
25.39
1.3
-20.22
-39.01
-54.1
-63.52
-64.69
-55.31
-34.12
-1.07
42.92
95.87
150.0
150.0
150.0
150.0
150.0
150.0
150.0
150.0
150.0
150.0
150.0
150.0
150.0
150.0
150.0
139.63
112.33
80.9
45.21
5.56
-36.93
-80.66
-124.36
-150.0
-150.0
-150.0
-150.0
-150.0
-150.0
-150.0
-150.0
-150.0
-150.0
-150.0
-150.0
-150.0
-150.0
-146.58
-91.75
-38.12
9.98
47.26
70.15
78.87
77.26
70.87
64.28
59.46
55.82
51.5
45.11
36.54
27.0
18.51
13.58
15.05
25.81
47.87
81.07
122.16
150.0
150.0
150.0
150.0
150.0
150.0
150.0
150.0
150.0
150.0
150.0
150.0
150.0
150.0
150.0
150.0
125.19
84.62
51.86
28.87
13.91
2.13
-12.41
-34.09
-64.26
-101.67
-144.29
-150.0
-150.0
-150.0
-150.0
-150.0
-150.0
-150.0
-150.0
-150.0
-150.0
-150.0
-150.0
-150.0
-106.69
-57.94
-15.52
17.67
39.08
48.72
50.1
49.27
52.22
62.07
77.64
94.13
105.57
107.67
99.68
84.39
66.63
51.18
41.04
36.88
37.43
40.46
43.75
45.9
46.88
48.17
52.29
61.68
77.66
99.63
125.33
150.0
150.0
150.0
150.0
150.0
150.0
150.0
150.0
150.0
150.0
150.0
150.0
150.0
150.0
150.0
150.0
150.0
146.02
134.72
119.99
97.94
67.34
29.97
-10.35
-49.53
-84.88
-115.72
-143.14
-150.0
-150.0
-150.0
-150.0
-150.0
-150.0
-150.0
-150.0
-150.0
-150.0
-150.0
-150.0
-150.0
-150.0
-143.31
-93.98
-60.21
-39.64
-27.49
-19.09
-12.32
-8.4
-11.12
-24.53
-50.81
-88.99
-135.35
-150.0
-150.0
-150.0
-150.0
-150.0
-150.0
-150.0
-150.0
-108.15
-43.2
13.81
59.89
96.17
126.84
150.0
150.0
150.0
150.0
150.0
150.0
150.0
150.0
150.0
150.0
150.0
150.0
150.0
150.0
150.0
150.0
150.0
150.0
150.0
115.97
67.31
21.0
-21.62
-62.46
-104.93
-150.0
-150.0
-150.0
-150.0
-150.0
-150.0
-150.0
-150.0
-150.0
-150.0
-150.0
-150.0
-150.0
-150.0
-150.0
-150.0
-102.33
-58.85
-24.08
-2.02
3.05
-11.89
-46.41
-95.19
-148.33
-150.0
-150.0
-150.0
-150.0
-150.0
-134.85
-86.36
-35.51
15.99
66.32
113.19
150.0
150.0
150.0
150.0
150.0
150.0
150.0
150.0
150.0
150.0
150.0
150.0
150.0
150.0
150.0
150.0
150.0
150.0
150.0
150.0
150.0
150.0
150.0
150.0
150.0
150.0
130.18
87.05
45.58
7.08
-28.39
-61.59
-93.27
-123.72
-150.0
-150.0
-150.0
-150.0
-150.0
-150.0
-150.0
-150.0
-150.0
-150.0
-150.0
-150.0
-150.0
-150.0
-137.78
-66.1
-7.87
31.4
48.0
41.7
16.78
-18.51
-54.7
-84.46
-105.2
-119.36
-132.42
-149.93
-150.0
-150.0
-150.0
-150.0
-150.0
-150.0
-150.0
-150.0
-150.0
-103.83
-45.47
11.21
63.5
110.23
150.0
150.0
150.0
150.0
150.0
150.0
150.0
150.0
150.0
150.0
150.0
150.0
150.0
150.0
150.0
150.0
150.0
150.0
150.0
150.0
150.0
150.0
150.0
150.0
139.94
116.98
89.11
59.19
30.99
5.91
-16.48
-38.06
-61.39
-89.49
-124.53
-150.0
-150.0
-150.0
-150.0
-150.0
-150.0
-150.0
-150.0
-150.0
-150.0
-150.0
-150.0
-150.0
-150.0
-150.0
-150.0
-150.0
-150.0
-150.0
-150.0
-150.0
-150.0
-150.0
-150.0
-150.0
-150.0
-150.0
-150.0
-150.0
-150.0
-150.0
-150.0
-150.0
-126.67
18.24
117.54
150.0
150.0
150.0
150.0
150.0
150.0
150.0
150.0
150.0
150.0
150.0
150.0
150.0
150.0
150.0
150.0
150.0
150.0
150.0
150.0
150.0
150.0
150.0
150.0
150.0
126.02
69.26
9.83
-54.5
-123.67
-150.0
-150.0
-150.0
-150.0
-150.0
-150.0
-150.0
-150.0
-150.0
-150.0
-150.0
-150.0
-113.63
-69.75
-25.52
11.55
32.47
30.49
4.92
-37.36
-83.69
-120.36
-138.05
-134.22
-113.91
-84.68
-52.64
-20.17
13.47
49.51
87.24
123.42
150.0
150.0
150.0
150.0
150.0
150.0
150.0
150.0
150.0
150.0
150.0
150.0
150.0
150.0
150.0
150.0
150.0
150.0
150.0
150.0
150.0
150.0
146.68
95.82
53.36
19.11
-8.41
-31.73
-54.07
-78.53
-107.59
-142.79
-150.0
-150.0
-150.0
-150.0
-150.0
-150.0
-150.0
-150.0
-150.0
-150.0
-86.92
-18.08
48.26
104.85
143.26
150.0
144.96
111.89
67.23
21.0
-19.82
-52.93
-80.11
-105.56
-133.79
-150.0
-150.0
-150.0
-150.0
-150.0
-150.0
-150.0
-150.0
-150.0
-150.0
-150.0
-150.0
-150.0
-125.38
-89.31
-51.29
-11.25
30.74
75.07
122.25
150.0
150.0
150.0
150.0
150.0
150.0
150.0
150.0
150.0
150.0
150.0
150.0
150.0
119.54
90.64
64.88
35.69
-3.22
-55.1
-118.0
-150.0
-150.0
-150.0
-150.0
-150.0
-150.0
-150.0
-127.21
-73.25
-34.79
-16.96
-19.0
-34.37
-52.29
-62.3
-58.99
-44.99
-29.97
-25.92
-41.26
-76.95
-127.05
-150.0
-150.0
-150.0
-150.0
-150.0
-150.0
-150.0
-150.0
-150.0
-136.51
-75.04
-21.57
19.45
48.09
68.35
86.53
108.85
139.79
150.0
150.0
150.0
150.0
150.0
150.0
150.0
150.0
150.0
150.0
150.0
150.0
150.0
150.0
150.0
150.0
150.0
150.0
132.83
102.48
79.28
58.61
34.78
3.34
-37.54
-86.27
-138.14
-150.0
-150.0
-150.0
-150.0
-150.0
-139.21
-71.4
-0.89
63.02
113.77
148.22
150.0
150.0
150.0
132.17
96.97
54.08
7.71
-37.63
-78.61
-114.23
-146.44
-150.0
-150.0
-150.0
-150.0
-150.0
-150.0
-150.0
-150.0
-150.0
-150.0
-150.0
-150.0
-150.0
-150.0
-150.0
-150.0
-148.46
-109.33
-75.85
-46.75
-19.99
7.66
40.47
82.53
135.92
150.0
150.0
150.0
150.0
150.0
150.0
150.0
150.0
150.0
150.0
150.0
138.27
107.95
80.23
54.49
29.9
4.19
-26.68
-67.08
-120.52
-150.0
-150.0
-150.0
-150.0
-150.0
-150.0
-150.0
-150.0
-150.0
-150.0
-150.0
-128.26
-90.26
-49.52
-4.41
45.34
98.43
150.0
150.0
150.0
150.0
150.0
150.0
115.06
39.42
-38.35
-106.68
-150.0
-150.0
-150.0
-126.28
-72.44
-14.05
38.59
80.16
111.2
136.88
150.0
150.0
150.0
150.0
150.0
150.0
150.0
150.0
150.0
150.0
150.0
150.0
150.0
150.0
150.0
136.88
110.49
83.94
56.15
27.0
-3.28
-34.58
-66.94
-100.47
-135.45
-150.0
-150.0
-150.0
-150.0
-150.0
-150.0
-150.0
-150.0
-150.0
-150.0
-150.0
-150.0
-150.0
-108.72
-41.9
20.96
75.01
115.12
138.13
144.53
138.02
123.35
103.6
78.84
46.65
3.86
-51.02
-116.2
-150.0
-150.0
-150.0
-150.0
-150.0
-150.0
-150.0
-150.0
-150.0
-126.23
-82.42
-46.09
-15.25
12.48
38.9
65.58
94.8
129.55
150.0
150.0
150.0
150.0
150.0
150.0
150.0
150.0
150.0
150.0
150.0
150.0
150.0
104.59
59.65
18.36
-18.99
-53.33
-87.15
-124.16
-150.0
-150.0
-150.0
-150.0
-150.0
-150.0
-150.0
-150.0
-150.0
-150.0
-150.0
-150.0
-150.0
-150.0
-150.0
-150.0
-150.0
-118.84
-82.34
-42.94
-0.94
41.46
80.69
113.37
137.52
150.0
150.0
150.0
150.0
150.0
150.0
150.0
150.0
150.0
150.0
150.0
150.0
150.0
150.0
150.0
150.0
150.0
150.0
150.0
150.0
150.0
150.0
150.0
150.0
150.0
150.0
127.58
82.26
38.14
-3.52
-41.66
-76.2
-107.94
-138.11
-150.0
-150.0
-150.0
-150.0
-150.0
-150.0
-150.0
-150.0
-150.0
-150.0
-150.0
-150.0
-150.0
-150.0
-150.0
-150.0
-150.0
-150.0
-150.0
-121.23
-83.07
-41.15
5.93
57.99
111.31
150.0
150.0
150.0
150.0
118.17
51.2
-19.14
-80.65
-125.02
-148.78
-150.0
-139.68
-114.28
-80.97
-44.04
-6.85
28.91
63.71
100.01
141.08
150.0
150.0
150.0
150.0
150.0
150.0
150.0
150.0
150.0
150.0
150.0
150.0
150.0
150.0
150.0
150.0
150.0
138.2
96.88
54.87
12.83
-31.15
-79.31
-132.02
-150.0
-150.0
-150.0
-150.0
-150.0
-150.0
-150.0
-150.0
-150.0
-150.0
-150.0
-139.88
-78.4
-13.34
44.08
81.37
89.37
67.02
22.52
-29.96
-76.07
-106.5
-118.75
-115.87
-101.47
-79.26
-52.54
-24.64
1.17
22.8
40.37
56.35
74.15
98.7
131.94
150.0
150.0
150.0
150.0
150.0
150.0
150.0
150.0
150.0
150.0
150.0
150.0
150.0
150.0
150.0
150.0
150.0
150.0
72.02
-53.18
-150.0
-150.0
-150.0
-150.0
-150.0
-150.0
-150.0
-150.0
-150.0
-150.0
-150.0
-150.0
-150.0
-150.0
-150.0
-150.0
-150.0
-150.0
-150.0
-150.0
-150.0
-150.0
-150.0
-150.0
-150.0
-110.83
-70.55
-44.55
-37.05
-46.27
-67.22
-95.33
-128.51
-150.0
-150.0
-150.0
-150.0
-150.0
-150.0
-150.0
-150.0
-123.35
-60.33
-6.95
35.37
71.09
107.87
150.0
150.0
150.0
150.0
150.0
150.0
150.0
150.0
150.0
150.0
150.0
150.0
120.96
76.72
31.15
-14.03
-54.67
-85.76
-107.35
-123.25
-138.59
-150.0
-150.0
-150.0
-150.0
-150.0
-150.0
-150.0
-150.0
-150.0
-150.0
-150.0
-150.0
-150.0
-150.0
-150.0
-112.67
-80.83
-56.49
-36.02
-18.36
-1.73
18.01
46.5
88.72
141.09
150.0
150.0
150.0
150.0
150.0
106.29
44.11
3.24
-8.64
6.11
38.76
78.85
117.49
150.0
150.0
150.0
150.0
150.0
150.0
150.0
150.0
150.0
150.0
150.0
150.0
150.0
150.0
150.0
150.0
150.0
94.12
37.2
-8.3
-43.29
-70.27
-93.18
-116.66
-145.32
-150.0
-150.0
-150.0
-150.0
-150.0
-150.0
-150.0
-150.0
-150.0
-150.0
-150.0
-150.0
-150.0
-150.0
-150.0
-150.0
-136.14
-97.03
-69.96
-59.97
-68.18
-90.91
-120.3
-146.46
-150.0
-150.0
-141.4
-112.13
-76.72
-39.58
-3.12
31.51
63.25
90.55
112.05
128.0
141.46
150.0
150.0
150.0
150.0
150.0
150.0
150.0
150.0
150.0
150.0
150.0
150.0
150.0
150.0
150.0
150.0
150.0
150.0
150.0
150.0
120.01
73.3
24.0
-24.5
-67.96
-102.54
-125.82
-137.08
-136.45
-123.95
-99.22
-62.51
-16.19
34.65
83.03
122.29
148.47
150.0
150.0
148.18
125.58
92.31
48.83
-3.01
-59.51
-114.97
-150.0
-150.0
-150.0
-150.0
-150.0
-150.0
-150.0
-150.0
-150.0
-150.0
-150.0
-118.69
-63.25
-10.1
38.18
82.67
126.79
150.0
150.0
150.0
150.0
150.0
150.0
150.0
150.0
150.0
150.0
150.0
150.0
150.0
150.0
150.0
150.0
150.0
150.0
150.0
121.47
23.43
-67.15
-139.65
-150.0
-150.0
-150.0
-150.0
-150.0
-150.0
-150.0
-150.0
-150.0
-150.0
-150.0
-150.0
-150.0
-150.0
-150.0
-150.0
-150.0
-150.0
-150.0
-150.0
-150.0
-150.0
-150.0
-150.0
-150.0
-150.0
-150.0
-150.0
-150.0
-150.0
-150.0
-150.0
-150.0
-150.0
-150.0
-150.0
-150.0
-133.88
-71.26
-12.68
35.5
71.39
97.48
119.07
142.15
150.0
150.0
150.0
150.0
150.0
150.0
150.0
150.0
150.0
150.0
150.0
150.0
150.0
113.14
65.17
20.72
-19.11
-53.15
-82.09
-109.66
-141.66
-150.0
-150.0
-150.0
-150.0
-150.0
-150.0
-150.0
-150.0
-150.0
-150.0
-150.0
-150.0
-150.0
-146.54
-122.81
-91.34
-51.24
-3.87
46.73
93.63
128.32
143.55
136.64
111.46
77.93
48.87
35.47
43.62
72.4
115.23
150.0
150.0
150.0
150.0
150.0
150.0
150.0
150.0
150.0
150.0
150.0
150.0
150.0
150.0
150.0
150.0
140.01
113.94
98.77
93.52
93.94
93.73
86.88
69.75
42.44
8.23
-28.09
-62.21
-91.84
-117.44
-141.81
-150.0
-150.0
-150.0
-150.0
-150.0
-150.0
-150.0
-150.0
-150.0
-150.0
-150.0
-150.0
-107.93
-60.23
-15.46
24.64
57.11
78.76
87.33
81.8
62.06
28.33
-18.6
-76.35
-139.81
-150.0
-150.0
-150.0
-150.0
-150.0
-150.0
-145.69
-88.35
-35.99
10.02
51.93
93.56
137.63
150.0
150.0
150.0
150.0
150.0
150.0
150.0
150.0
150.0
150.0
150.0
150.0
150.0
150.0
150.0
150.0
150.0
126.75
83.06
40.39
0.21
-37.06
-71.57
-103.82
-134.76
-150.0
-150.0
-150.0
-150.0
-150.0
-150.0
-150.0
-150.0
-150.0
-150.0
-150.0
-150.0
-115.42
-55.01
-0.51
40.7
60.22
51.65
13.89
-46.93
-118.47
-150.0
-150.0
-150.0
-150.0
-150.0
-150.0
-150.0
-150.0
-119.82
-80.14
-36.67
8.46
52.3
92.21
127.81
150.0
150.0
150.0
150.0
150.0
150.0
150.0
150.0
150.0
150.0
150.0
150.0
150.0
150.0
150.0
150.0
150.0
150.0
150.0
150.0
150.0
150.0
125.34
74.72
15.48
-45.54
-94.56
-129.63
-150.0
-150.0
-150.0
-150.0
-150.0
-150.0
-150.0
-150.0
-150.0
-150.0
-150.0
-150.0
-150.0
-150.0
-118.48
-48.79
11.49
56.76
84.7
96.04
94.31
85.13
74.99
70.05
73.42
84.05
96.52
103.67
98.46
76.62
38.78
-8.6
-54.11
-85.18
-92.16
-71.49
-25.61
38.25
110.94
150.0
150.0
150.0
150.0
150.0
150.0
150.0
150.0
150.0
150.0
126.16
88.74
57.94
30.58
3.28
-25.86
-56.64
-87.31
-115.7
-140.66
-150.0
-150.0
-150.0
-150.0
-150.0
-150.0
-150.0
-150.0
-150.0
-150.0
-150.0
-150.0
-150.0
-150.0
-150.0
-150.0
-150.0
-150.0
-150.0
-119.58
-72.46
-27.51
15.56
57.58
100.24
145.91
150.0
150.0
150.0
150.0
150.0
150.0
150.0
150.0
150.0
150.0
150.0
150.0
119.3
63.32
17.69
-10.32
-13.48
11.4
59.77
118.78
150.0
150.0
150.0
150.0
113.49
46.04
-20.49
-75.82
-113.68
-131.6
-130.28
-113.54
-90.75
-72.77
-68.31
-81.05
-109.23
-147.48
-150.0
-150.0
-150.0
-150.0
-150.0
-150.0
-150.0
-150.0
-150.0
-150.0
-150.0
-150.0
-150.0
-150.0
-150.0
-118.61
-23.35
41.03
80.89
104.06
116.17
117.07
106.51
87.59
66.95
51.76
46.22
50.72
62.5
77.64
90.69
98.91
103.55
109.34
121.94
141.97
150.0
150.0
150.0
150.0
150.0
150.0
150.0
150.0
150.0
150.0
150.0
150.0
150.0
150.0
150.0
150.0
150.0
150.0
150.0
150.0
150.0
150.0
149.67
100.09
49.46
0.71
-43.84
-83.07
-117.2
-147.12
-150.0
-150.0
-150.0
-150.0
-150.0
-150.0
-150.0
-150.0
-150.0
-150.0
-150.0
-150.0
-150.0
-150.0
-109.31
-74.39
-54.27
-47.54
-50.3
-57.25
-63.14
-64.29
-59.56
-50.45
-40.08
-31.83
-28.0
-29.42
-35.49
-44.66
-54.8
-63.16
-66.49
-61.54
-46.01
-19.35
17.11
60.88
109.33
150.0
150.0
150.0
150.0
150.0
150.0
150.0
150.0
150.0
150.0
150.0
150.0
150.0
144.45
133.87
118.05
96.08
68.38
36.3
1.58
-33.91
-68.51
-101.03
-131.15
-150.0
-150.0
-150.0
-150.0
-150.0
-150.0
-150.0
-150.0
-150.0
-150.0
-150.0
-150.0
-150.0
-134.13
-86.63
-39.02
4.74
39.53
61.33
69.33
66.14
56.53
45.23
35.39
28.1
22.22
15.75
7.51
-1.76
-8.94
-9.31
1.92
27.83
68.33
118.91
150.0
150.0
150.0
150.0
150.0
150.0
150.0
150.0
150.0
150.0
150.0
150.0
150.0
119.1
70.61
22.68
-21.8
-59.02
-85.93
-101.93
-108.4
-107.12
-99.68
-89.65
-78.69
-68.55
-61.74
-60.79
-67.4
-82.29
-105.62
-135.49
-150.0
-150.0
-150.0
-150.0
-150.0
-150.0
-150.0
-150.0
-150.0
-150.0
-150.0
-137.27
-116.11
-105.56
-106.62
-118.39
-137.99
-150.0
-150.0
-150.0
-150.0
-150.0
-146.42
-107.15
-63.79
-21.14
17.85
52.12
81.98
108.2
131.58
150.0
150.0
150.0
150.0
150.0
150.0
150.0
150.0
150.0
150.0
150.0
150.0
150.0
150.0
150.0
150.0
150.0
150.0
150.0
99.61
52.84
13.5
-19.22
-47.04
-72.06
-96.66
-123.49
-150.0
-150.0
-150.0
-150.0
-150.0
-150.0
-150.0
-150.0
-150.0
-150.0
-117.31
-54.74
3.44
50.41
78.38
80.9
55.84
6.93
-57.05
-125.3
-150.0
-150.0
-150.0
-150.0
-150.0
-150.0
-150.0
-150.0
-150.0
-150.0
-141.11
-83.12
-27.73
22.69
67.73
108.65
147.57
150.0
150.0
150.0
150.0
150.0
150.0
150.0
150.0
150.0
150.0
150.0
150.0
150.0
150.0
150.0
150.0
150.0
150.0
145.96
102.59
57.33
13.2
-27.42
-63.31
-94.37
-121.18
-145.18
-150.0
-150.0
-150.0
-150.0
-150.0
-150.0
-150.0
-150.0
-150.0
-150.0
-150.0
-150.0
-150.0
-150.0
-122.39
-76.73
-40.35
-13.99
2.83
11.7
14.6
13.11
8.02
-0.2
-10.79
-22.22
-32.66
-40.62
-45.59
-47.91
-47.92
-45.1
-37.95
-24.53
-3.62
24.73
59.09
97.64
139.07
150.0
150.0
150.0
150.0
150.0
150.0
150.0
150.0
150.0
150.0
150.0
150.0
150.0
150.0
150.0
150.0
136.59
108.59
76.68
42.78
10.3
-17.98
-41.51
-62.38
-84.24
-110.73
-144.1
-150.0
-150.0
-150.0
-150.0
-150.0
-150.0
-150.0
-150.0
-150.0
-150.0
-118.01
-55.89
1.48
51.96
93.06
121.27
132.83
125.3
99.56
61.07
19.7
-12.4
-24.29
-10.07
28.35
81.53
135.73
150.0
150.0
150.0
150.0
150.0
122.54
83.08
38.78
-8.37
-53.46
-89.67
-110.76
-113.46
-98.07
-67.19
-24.31
26.79
81.3
132.51
150.0
150.0
150.0
150.0
126.99
78.53
28.68
-18.19
-60.13
-96.43
-126.42
-149.68
-150.0
-150.0
-150.0
-150.0
-150.0
-150.0
-150.0
-150.0
-150.0
-150.0
-150.0
-150.0
-150.0
-150.0
-150.0
-150.0
-150.0
-150.0
-150.0
-150.0
-150.0
-125.74
-80.27
-26.01
37.0
105.15
150.0
150.0
150.0
150.0
150.0
150.0
123.41
96.81
100.21
134.02
150.0
150.0
150.0
150.0
150.0
150.0
150.0
150.0
150.0
150.0
150.0
150.0
150.0
150.0
150.0
150.0
150.0
150.0
150.0
103.47
39.83
-23.26
-80.01
-126.58
-150.0
-150.0
-150.0
-150.0
-150.0
-150.0
-150.0
-150.0
-150.0
-150.0
-150.0
-150.0
-150.0
-150.0
-150.0
-150.0
-150.0
-150.0
-150.0
-150.0
-150.0
-150.0
-150.0
-150.0
-150.0
-150.0
-150.0
-130.96
-100.22
-66.37
-30.16
7.65
46.28
84.23
118.61
145.3
150.0
150.0
150.0
147.23
142.69
148.32
150.0
150.0
150.0
150.0
150.0
150.0
150.0
150.0
150.0
150.0
150.0
150.0
150.0
150.0
150.0
150.0
150.0
150.0
150.0
150.0
150.0
150.0
150.0
138.28
99.51
49.02
-11.26
-77.42
-144.27
-150.0
-150.0
-150.0
-150.0
-150.0
-150.0
-150.0
-150.0
-150.0
-150.0
-150.0
-123.67
-79.94
-31.24
18.29
64.35
103.34
132.92
150.0
150.0
150.0
150.0
150.0
141.3
131.07
120.31
109.19
97.94
87.06
77.36
69.98
66.39
68.03
75.82
89.58
108.04
129.37
150.0
150.0
150.0
150.0
150.0
150.0
150.0
150.0
150.0
150.0
150.0
150.0
150.0
150.0
150.0
137.56
111.76
82.46
49.65
14.2
-22.47
-58.66
-93.03
-125.04
-150.0
-150.0
-150.0
-150.0
-150.0
-150.0
-150.0
-150.0
-150.0
-150.0
-150.0
-150.0
-150.0
-150.0
-150.0
-150.0
-150.0
-108.06
-55.46
-1.95
49.57
94.27
127.35
145.84
149.53
140.92
124.05
103.22
81.64
61.13
42.34
25.43
10.55
-2.13
-12.52
-20.74
-26.74
-29.84
-28.49
-20.61
-4.12
22.47
59.47
105.77
150.0
150.0
150.0
150.0
150.0
150.0
150.0
150.0
150.0
150.0
150.0
150.0
150.0
150.0
150.0
150.0
150.0
150.0
150.0
146.61
104.62
57.17
8.56
-37.73
-79.77
-117.15
-150.0
-150.0
-150.0
-150.0
-150.0
-150.0
-150.0
-150.0
-150.0
-150.0
-150.0
-150.0
-150.0
-150.0
-150.0
-150.0
-94.06
-52.93
-30.02
-23.7
-29.67
-40.91
-48.51
-44.1
-22.95
13.58
56.91
93.78
111.06
101.14
64.74
10.2
-50.31
-105.12
-145.44
-150.0
-150.0
-150.0
-121.52
-75.44
-18.65
44.18
107.77
150.0
150.0
150.0
150.0
150.0
150.0
150.0
150.0
150.0
150.0
150.0
150.0
150.0
150.0
150.0
150.0
150.0
150.0
146.32
61.36
-24.14
-98.11
-150.0
-150.0
-150.0
-150.0
-150.0
-150.0
-150.0
-150.0
-150.0
-150.0
-150.0
-150.0
-150.0
-150.0
-150.0
-150.0
-150.0
-150.0
-150.0
-138.35
-122.88
-107.07
-86.09
-59.49
-33.28
-17.52
-21.05
-46.03
-85.58
-125.79
-150.0
-150.0
-132.29
-93.44
-48.4
-5.69
31.5
64.73
97.56
132.53
150.0
150.0
150.0
150.0
150.0
150.0
150.0
150.0
150.0
150.0
150.0
150.0
150.0
150.0
150.0
150.0
150.0
147.77
107.55
62.92
19.22
-19.42
-50.97
-75.65
-95.68
-114.84
-137.72
-150.0
-150.0
-150.0
-150.0
-150.0
-150.0
-150.0
-150.0
-150.0
-150.0
-115.23
-82.49
-68.81
-70.37
-79.41
-87.02
-86.14
-73.61
-51.1
-24.44
-1.69
9.86
6.71
-9.36
-31.36
-49.54
-54.83
-41.99
-10.79
35.08
90.63
150.0
150.0
150.0
150.0
150.0
150.0
150.0
150.0
150.0
150.0
150.0
150.0
150.0
150.0
150.0
129.57
97.21
62.99
28.32
-5.27
-36.19
-63.33
-86.53
-106.8
-126.23
-147.65
-150.0
-150.0
-150.0
-150.0
-150.0
-150.0
-150.0
-150.0
-150.0
-150.0
-150.0
-150.0
-150.0
-120.68
-66.2
-14.1
31.08
63.02
76.04
67.18
36.91
-11.37
-72.27
-138.8
-150.0
-150.0
-150.0
-150.0
-150.0
-150.0
-150.0
-112.75
-56.97
-7.07
37.61
79.6
121.52
150.0
150.0
150.0
150.0
150.0
150.0
150.0
150.0
150.0
150.0
150.0
150.0
150.0
150.0
150.0
150.0
126.2
88.27
56.35
28.43
1.36
-27.93
-61.76
-101.35
-146.62
-150.0
-150.0
-150.0
-150.0
-150.0
-150.0
-150.0
-150.0
-150.0
-143.85
-88.37
-34.67
12.09
45.54
59.81
51.59
21.34
-26.9
-86.62
-150.0
-150.0
-150.0
-150.0
-150.0
-150.0
-150.0
-150.0
-125.43
-60.89
1.22
57.04
104.58
144.21
150.0
150.0
150.0
150.0
150.0
150.0
150.0
150.0
150.0
150.0
150.0
150.0
150.0
150.0
115.13
95.25
88.72
88.84
87.63
78.6
58.8
29.08
-7.19
-46.42
-86.82
-129.19
-150.0
-150.0
-150.0
-150.0
-150.0
-150.0
-150.0
-150.0
-150.0
-150.0
-150.0
-150.0
-150.0
-124.4
-73.7
-18.83
41.02
97.23
143.49
150.0
150.0
150.0
125.47
70.08
4.89
-61.65
-121.34
-150.0
-150.0
-150.0
-150.0
-150.0
-134.19
-102.02
-69.43
-36.65
-2.16
35.26
76.62
122.53
150.0
150.0
150.0
150.0
150.0
150.0
150.0
150.0
150.0
150.0
150.0
150.0
150.0
150.0
150.0
150.0
136.16
84.92
30.9
-21.53
-70.6
-117.16
-150.0
-150.0
-150.0
-150.0
-150.0
-150.0
-150.0
-150.0
-150.0
-150.0
-150.0
-95.23
-35.24
14.93
51.68
71.63
72.86
56.99
30.12
1.27
-21.37
-34.46
-40.93
-47.77
-61.13
-81.7
-103.26
-115.41
-108.86
-79.97
-32.14
26.58
87.72
145.73
150.0
150.0
150.0
150.0
150.0
150.0
150.0
150.0
150.0
150.0
150.0
150.0
150.0
150.0
150.0
150.0
150.0
144.44
98.08
52.14
9.76
-28.06
-61.99
-93.88
-125.99
-150.0
-150.0
-150.0
-150.0
-150.0
-150.0
-150.0
-150.0
-150.0
-150.0
-150.0
-150.0
-107.96
-52.83
-7.96
22.43
36.46
35.4
23.6
6.73
-10.42
-25.7
-39.66
-54.21
-71.03
-90.58
-112.19
-134.51
-150.0
-150.0
-150.0
-150.0
-150.0
-150.0
-131.03
-83.18
-29.5
24.52
75.6
123.53
150.0
150.0
150.0
150.0
150.0
150.0
150.0
150.0
150.0
150.0
150.0
150.0
150.0
150.0
150.0
150.0
120.26
77.43
37.33
2.13
-28.15
-55.3
-81.6
-108.9
-138.39
-150.0
-150.0
-150.0
-150.0
-150.0
-150.0
-150.0
-150.0
-150.0
-150.0
-150.0
-150.0
-150.0
-111.13
-58.2
-10.4
30.92
63.19
83.61
89.98
81.16
56.85
17.5
-34.72
-94.81
-150.0
-150.0
-150.0
-150.0
-150.0
-150.0
-110.59
-51.5
3.55
51.53
93.03
131.27
150.0
150.0
150.0
150.0
150.0
150.0
150.0
150.0
150.0
150.0
150.0
115.01
52.26
-4.15
-53.41
-95.98
-133.65
-150.0
-150.0
-150.0
-150.0
-150.0
-150.0
-150.0
-150.0
-150.0
-150.0
-150.0
-150.0
-150.0
-150.0
-150.0
-150.0
-150.0
-150.0
-150.0
-123.9
-93.38
-59.99
-22.26
21.25
69.24
117.18
150.0
150.0
150.0
150.0
150.0
150.0
150.0
150.0
150.0
150.0
150.0
150.0
150.0
150.0
150.0
150.0
150.0
150.0
150.0
150.0
150.0
150.0
150.0
150.0
150.0
150.0
150.0
150.0
43.93
-37.09
-91.3
-124.36
-144.6
-150.0
-150.0
-150.0
-150.0
-150.0
-150.0
-150.0
-150.0
-150.0
-150.0
-150.0
-149.02
-127.07
-102.43
-76.45
-51.12
-29.48
-14.76
-8.58
-10.28
-16.94
-24.59
-29.9
-31.22
-28.82
-24.13
-18.51
-11.86
-2.65
11.13
30.58
54.91
81.46
106.32
125.68
137.08
140.01
136.2
128.56
119.97
112.26
105.96
100.47
94.55
89.57
86.04
83.88
82.22
79.63
74.82
67.22
57.19
45.76
33.99
22.1
9.95
-2.65
-15.65
-28.57
-40.95
-52.66
-63.97
-75.3
-87.24
-99.93
-112.97
-125.77
-137.87
-149.31
-150.0
-150.0
-150.0
-150.0
-150.0
-150.0
-150.0
-150.0
-150.0
-122.52
-94.75
-72.2
-60.01
-61.84
-78.64
-108.18
-145.09
-150.0
-150.0
-150.0
-150.0
-150.0
-150.0
-150.0
-150.0
-150.0
-131.9
-102.94
-67.97
-28.1
14.66
58.2
100.88
140.96
150.0
150.0
150.0
150.0
150.0
150.0
140.59
113.08
93.61
83.68
81.39
82.35
81.51
74.48
58.67
33.54
0.14
-39.62
-84.06
-132.13
-150.0
-150.0
-150.0
-150.0
-150.0
-150.0
-150.0
-150.0
-150.0
-150.0
-150.0
-102.46
-58.44
-21.83
8.48
33.3
52.51
65.35
71.24
70.46
64.46
55.59
46.36
38.63
33.12
29.48
26.88
24.9
24.01
25.81
32.51
46.17
67.67
96.01
128.33
150.0
150.0
150.0
150.0
150.0
150.0
150.0
150.0
150.0
150.0
150.0
135.14
120.78
106.37
88.22
62.63
27.55
-16.46
-66.19
-116.71
-150.0
-150.0
-150.0
-150.0
-150.0
-150.0
-150.0
-150.0
-117.72
-76.39
-33.12
9.12
46.72
76.31
96.01
105.96
107.77
103.45
94.41
81.29
64.65
45.88
27.48
12.42
3.08
0.26
3.1
9.38
16.56
22.64
26.95
30.35
34.91
43.03
56.32
74.95
97.36
120.92
142.73
150.0
150.0
150.0
150.0
150.0
150.0
150.0
150.0
150.0
150.0
150.0
150.0
150.0
150.0
120.5
77.42
47.02
30.64
23.46
17.27
4.37
-19.11
-52.09
-89.96
-127.25
-150.0
-150.0
-150.0
-150.0
-150.0
-150.0
-150.0
-150.0
-150.0
-150.0
-150.0
-150.0
-150.0
-150.0
-150.0
-150.0
-150.0
-150.0
-150.0
-150.0
-145.85
-96.12
-44.39
7.24
54.61
92.22
115.13
121.21
113.0
97.75
85.02
83.38
97.44
127.19
150.0
150.0
150.0
150.0
150.0
150.0
150.0
150.0
150.0
150.0
150.0
150.0
150.0
150.0
150.0
150.0
150.0
150.0
140.3
127.53
113.66
95.37
70.73
39.57
3.39
-35.21
-73.33
-108.21
-137.77
-150.0
-150.0
-150.0
-150.0
-150.0
-150.0
-150.0
-150.0
-150.0
-150.0
-150.0
-150.0
-150.0
-150.0
-150.0
-150.0
-150.0
-150.0
-150.0
-150.0
-150.0
-150.0
-134.68
-94.81
-57.77
-27.67
-6.53
6.19
13.05
16.91
20.31
25.34
33.86
47.29
66.89
93.53
127.11
150.0
150.0
150.0
150.0
150.0
150.0
150.0
150.0
150.0
150.0
150.0
150.0
150.0
150.0
150.0
150.0
150.0
150.0
104.41
53.46
3.42
-42.52
-77.97
-98.7
-105.57
-103.05
-98.92
-93.16
-85.38
-77.57
-74.49
-80.3
-99.36
-132.0
-150.0
-150.0
-150.0
-150.0
-150.0
-150.0
-150.0
-115.31
-75.85
-42.73
-15.9
6.4
25.48
41.75
54.58
62.66
64.15
58.43
45.66
26.65
2.37
-26.37
-57.35
-86.03
-105.87
-110.25
-94.21
-57.76
-5.74
54.66
117.29
150.0
150.0
150.0
150.0
150.0
150.0
150.0
150.0
150.0
150.0
150.0
143.22
115.16
83.43
44.39
-1.9
-52.05
-100.63
-139.28
-150.0
-150.0
-143.87
-131.09
-123.0
-118.49
-118.23
-124.09
-137.9
-150.0
-150.0
-150.0
-150.0
-150.0
-150.0
-150.0
-150.0
-131.97
-92.06
-56.68
-23.77
13.27
54.03
92.47
123.06
138.29
132.99
106.55
62.71
7.81
-51.21
-110.24
-150.0
-150.0
-150.0
-150.0
-150.0
-150.0
-150.0
-150.0
-108.86
-69.48
-39.31
-15.74
5.39
27.24
50.77
75.35
100.62
126.92
150.0
150.0
150.0
150.0
150.0
150.0
150.0
150.0
150.0
150.0
150.0
150.0
129.42
80.96
41.56
6.83
-26.61
-62.59
-102.96
-148.48
-150.0
-150.0
-150.0
-150.0
-150.0
-150.0
-150.0
-150.0
-150.0
-150.0
-124.31
-86.4
-45.54
-6.43
36.4
76.17
105.51
118.36
112.44
90.11
57.43
22.22
-8.37
-27.98
-34.5
-26.69
-4.84
29.37
72.7
120.84
150.0
150.0
150.0
150.0
150.0
150.0
150.0
150.0
150.0
150.0
150.0
150.0
150.0
150.0
150.0
147.33
111.18
74.46
36.18
-3.09
-41.43
-77.16
-109.11
-136.9
-150.0
-150.0
-150.0
-150.0
-150.0
-150.0
-150.0
-150.0
-150.0
-150.0
-150.0
-150.0
-150.0
-150.0
-150.0
-150.0
-150.0
-150.0
-150.0
-150.0
-137.28
-94.11
-61.88
-42.37
-33.48
-28.88
-20.15
-0.52
32.37
75.94
124.46
150.0
150.0
150.0
150.0
150.0
150.0
150.0
150.0
150.0
150.0
150.0
150.0
150.0
150.0
150.0
150.0
150.0
150.0
150.0
150.0
150.0
150.0
122.52
86.16
53.16
22.47
-6.81
-34.69
-60.46
-83.18
-102.37
-118.53
-132.85
-146.8
-150.0
-150.0
-150.0
-150.0
-150.0
-150.0
-150.0
-150.0
-150.0
-150.0
-150.0
-150.0
-150.0
-150.0
-150.0
-150.0
-150.0
-150.0
-143.9
-103.32
-76.75
-65.3
-67.12
-77.74
-91.98
-106.11
-119.18
-132.12
-145.91
-150.0
-150.0
-150.0
-150.0
-148.62
-119.87
-82.75
-40.04
5.05
49.48
91.62
130.47
150.0
150.0
150.0
150.0
150.0
150.0
150.0
150.0
150.0
150.0
150.0
150.0
150.0
150.0
145.8
85.78
30.93
-10.88
-35.7
-45.88
-46.75
-45.67
-44.46
-43.82
-44.79
-48.3
-56.82
-72.13
-96.64
-131.86
-150.0
-150.0
-150.0
-150.0
-150.0
-150.0
-150.0
-150.0
-150.0
-150.0
-150.0
-150.0
-121.28
-91.46
-68.1
-54.91
-53.59
-60.77
-68.55
-67.62
-52.09
-21.78
18.51
61.44
100.85
134.06
150.0
150.0
150.0
150.0
150.0
150.0
150.0
150.0
150.0
150.0
150.0
150.0
150.0
150.0
150.0
150.0
150.0
150.0
150.0
150.0
150.0
120.69
70.77
22.82
-21.36
-59.71
-91.15
-116.5
-138.29
-150.0
-150.0
-150.0
-150.0
-150.0
-150.0
-150.0
-150.0
-150.0
-150.0
-150.0
-150.0
-150.0
-150.0
-150.0
-150.0
-150.0
-150.0
-112.54
-61.65
-20.18
6.11
15.0
9.32
-4.07
-16.95
-22.98
-19.15
-5.56
15.89
43.53
77.07
117.3
150.0
150.0
150.0
150.0
150.0
150.0
150.0
150.0
150.0
150.0
150.0
150.0
150.0
150.0
150.0
150.0
105.08
43.65
-11.7
-58.98
-99.51
-135.73
-150.0
-150.0
-150.0
-150.0
-150.0
-150.0
-141.97
-125.63
-113.45
-108.5
-113.74
-129.62
-150.0
-150.0
-150.0
-150.0
-150.0
-150.0
-150.0
-150.0
-150.0
-150.0
-150.0
-139.27
-82.11
-24.25
28.91
69.24
87.52
77.13
37.49
-24.09
-94.34
-150.0
-150.0
-150.0
-150.0
-150.0
-141.21
-96.9
-53.54
-12.96
24.55
58.6
88.31
113.35
134.16
150.0
150.0
150.0
150.0
150.0
150.0
150.0
150.0
150.0
150.0
150.0
150.0
150.0
150.0
150.0
150.0
150.0
150.0
150.0
109.55
73.32
43.26
16.37
-11.0
-45.93
-86.93
-126.41
-150.0
-150.0
-150.0
-150.0
-150.0
-150.0
-150.0
-150.0
-150.0
-150.0
-150.0
-150.0
-150.0
-150.0
-150.0
-150.0
-150.0
-129.45
-84.2
-48.83
-21.58
-2.42
4.76
-5.97
-36.37
-80.03
-123.81
-150.0
-150.0
-131.43
-84.91
-25.89
33.58
85.56
128.76
150.0
150.0
150.0
150.0
150.0
150.0
150.0
150.0
150.0
150.0
150.0
150.0
114.24
57.03
4.64
-41.5
-81.85
-117.22
-145.09
-150.0
-150.0
-150.0
-135.22
-113.01
-91.38
-71.98
-53.7
-36.09
-19.29
-6.77
-3.29
-10.61
-29.43
-59.38
-99.59
-147.8
-150.0
-150.0
-150.0
-150.0
-150.0
-150.0
-150.0
-113.85
-69.78
-20.93
28.5
70.5
95.19
96.19
71.19
24.12
-34.9
-92.22
-134.91
-150.0
-150.0
-124.57
-84.93
-39.55
4.01
41.55
71.75
95.25
113.42
128.22
142.11
150.0
150.0
150.0
150.0
150.0
150.0
150.0
150.0
150.0
150.0
150.0
150.0
150.0
83.33
31.62
-1.85
-19.48
-24.75
-20.66
-9.74
5.2
21.96
37.61
49.09
55.05
56.91
56.11
53.44
49.56
44.63
38.11
28.79
15.32
-2.89
-24.07
-44.39
-62.34
-76.97
-88.46
-99.25
-112.1
-128.92
-149.92
-150.0
-150.0
-150.0
-150.0
-150.0
-150.0
-150.0
-150.0
-150.0
-150.0
-150.0
-150.0
-150.0
-150.0
-150.0
-150.0
-150.0
-150.0
-150.0
-138.43
-73.31
-15.22
30.78
60.82
77.97
90.19
106.45
137.86
150.0
150.0
150.0
150.0
150.0
150.0
150.0
150.0
150.0
150.0
150.0
150.0
134.22
124.9
116.76
105.41
89.14
69.98
46.2
13.93
-30.29
-83.69
-139.6
-150.0
-150.0
-150.0
-150.0
-150.0
-150.0
-150.0
-122.93
-69.56
-26.85
0.82
13.77
17.2
16.19
13.35
8.93
2.56
-5.26
-11.99
-15.08
-13.85
-8.86
-2.45
2.48
3.93
2.05
-1.04
-1.31
3.9
13.79
26.13
37.8
45.79
48.87
47.8
44.91
44.51
49.78
60.89
77.4
97.74
118.96
137.23
148.12
140.05
109.74
69.09
25.43
-15.6
-51.55
-85.39
-120.78
-150.0
-150.0
-150.0
-150.0
-150.0
-150.0
-150.0
-150.0
-150.0
-150.0
-150.0
-150.0
-150.0
-150.0
-150.0
-143.62
-110.59
-77.4
-44.0
-9.82
25.91
62.71
98.34
130.57
150.0
150.0
150.0
150.0
150.0
150.0
150.0
150.0
150.0
150.0
150.0
150.0
150.0
150.0
150.0
150.0
150.0
150.0
150.0
150.0
150.0
150.0
150.0
150.0
150.0
150.0
150.0
141.58
106.7
71.88
37.36
3.7
-28.39
-57.88
-83.75
-105.55
-123.65
-139.95
-150.0
-150.0
-150.0
-150.0
-150.0
-150.0
-150.0
-150.0
-150.0
-150.0
-150.0
-150.0
-150.0
-150.0
-150.0
-150.0
-104.17
-45.66
7.12
45.36
62.23
55.1
26.21
-17.6
-66.22
-108.28
-133.9
-137.28
-118.04
-81.13
-34.51
13.82
58.39
97.23
131.48
150.0
150.0
150.0
150.0
150.0
150.0
150.0
150.0
150.0
150.0
150.0
150.0
150.0
150.0
150.0
146.49
116.06
89.02
64.38
41.73
21.4
4.12
-9.18
-18.15
-23.63
-27.42
-32.17
-41.06
-57.57
-84.83
-124.51
-150.0
-150.0
-150.0
-150.0
-150.0
-150.0
-150.0
-150.0
-150.0
-150.0
-150.0
-150.0
-150.0
-150.0
-150.0
-150.0
-150.0
-150.0
-150.0
-150.0
-150.0
-150.0
-150.0
-150.0
-150.0
-111.96
-69.36
-30.22
5.2
36.01
61.47
81.95
99.38
117.06
139.29
150.0
150.0
150.0
150.0
150.0
150.0
150.0
150.0
150.0
150.0
150.0
150.0
150.0
129.26
92.58
67.93
58.78
64.61
79.48
92.66
98.86
97.15
90.15
82.12
77.61
77.4
78.31
73.37
55.35
20.13
-33.03
-100.62
-150.0
-150.0
-150.0
-150.0
-150.0
-150.0
-150.0
-150.0
-150.0
-150.0
-150.0
-150.0
-150.0
-150.0
-150.0
-150.0
-83.81
-14.35
46.41
96.71
140.89
150.0
150.0
150.0
150.0
129.87
72.36
9.09
-49.95
-92.57
-109.59
-99.89
-79.85
-57.7
-36.87
-16.81
9.34
45.14
91.5
144.2
150.0
150.0
150.0
150.0
150.0
150.0
129.56
102.21
94.2
100.44
111.27
120.63
126.59
130.91
137.29
146.08
150.0
150.0
147.9
127.46
96.7
58.59
18.78
-16.56
-44.09
-63.4
-76.46
-84.86
-90.11
-92.14
-90.7
-85.56
-76.81
-65.59
-53.16
-45.21
-39.78
-34.91
-28.45
-19.18
-5.95
12.13
35.14
62.97
94.92
130.25
150.0
150.0
150.0
150.0
150.0
150.0
150.0
150.0
122.66
72.26
17.04
-45.61
-118.5
-150.0
-150.0
-150.0
-150.0
-150.0
-150.0
-150.0
-150.0
-150.0
-150.0
-150.0
-150.0
-150.0
-150.0
-150.0
-150.0
-150.0
-122.44
-29.38
62.99
144.18
150.0
150.0
150.0
150.0
150.0
150.0
150.0
150.0
150.0
97.79
15.18
-62.94
-124.26
-150.0
-150.0
-149.74
-115.51
-76.64
-43.24
-23.08
-11.47
-2.67
6.86
19.35
36.03
58.43
88.56
128.32
150.0
150.0
150.0
150.0
150.0
150.0
150.0
150.0
150.0
150.0
150.0
150.0
92.76
22.83
-39.52
-88.57
-122.84
-144.07
-150.0
-150.0
-150.0
-143.71
-125.03
-98.62
-64.63
-23.44
25.17
83.46
149.53
150.0
150.0
150.0
150.0
150.0
150.0
150.0
150.0
142.0
100.09
74.19
61.48
56.99
57.58
60.46
64.31
66.87
65.13
56.78
41.01
19.76
-3.06
-23.29
-38.18
-47.39
-55.34
-68.48
-88.81
-116.19
-147.12
-150.0
-150.0
-150.0
-150.0
-150.0
-150.0
-150.0
-150.0
-150.0
-150.0
-150.0
-150.0
-150.0
-150.0
-150.0
-150.0
-150.0
-150.0
-121.02
-63.04
-21.96
7.06
25.35
36.11
41.73
45.31
51.38
64.72
89.34
128.17
150.0
150.0
150.0
150.0
150.0
150.0
150.0
150.0
150.0
150.0
136.26
102.03
80.91
65.86
52.32
38.09
21.85
1.99
-24.26
-60.38
-107.93
-150.0
-150.0
-150.0
-150.0
-150.0
-150.0
-150.0
-150.0
-150.0
-150.0
-150.0
-150.0
-150.0
-150.0
-150.0
-150.0
-150.0
-150.0
-150.0
-150.0
-150.0
-150.0
-127.59
-106.05
-86.16
-70.38
-59.6
-54.15
-53.87
-58.74
-68.69
-82.04
-96.37
-109.37
-120.34
-127.22
-127.92
-120.57
-104.64
-80.75
-47.95
-6.03
43.63
95.6
146.83
150.0
150.0
150.0
150.0
150.0
150.0
150.0
150.0
150.0
150.0
150.0
150.0
150.0
150.0
150.0
150.0
150.0
150.0
150.0
150.0
150.0
150.0
150.0
83.86
-28.91
-123.6
-150.0
-150.0
-150.0
-150.0
-150.0
-150.0
-150.0
-150.0
-150.0
-84.38
-9.27
61.39
121.85
150.0
150.0
150.0
150.0
150.0
124.21
71.16
9.93
-57.84
-127.81
-150.0
-150.0
-150.0
-150.0
-150.0
-94.71
-47.18
-26.08
-37.01
-74.45
-126.76
-150.0
-150.0
-150.0
-150.0
-150.0
-150.0
-150.0
-150.0
-150.0
-146.24
-113.93
-81.14
-50.38
-15.44
18.58
45.03
58.03
54.98
36.98
7.32
-30.3
-72.52
-115.12
-150.0
-150.0
-150.0
-150.0
-150.0
-144.2
-111.44
-83.08
-62.03
-48.71
-40.61
-34.53
-27.84
-18.85
-6.66
9.31
29.77
56.14
89.31
129.97
150.0
150.0
150.0
150.0
150.0
150.0
150.0
150.0
150.0
150.0
150.0
150.0
121.58
84.12
54.28
37.73
35.97
45.7
60.92
76.91
92.99
112.25
138.79
150.0
150.0
150.0
150.0
150.0
150.0
150.0
150.0
140.77
119.07
99.94
80.57
59.86
38.68
19.11
3.4
-10.59
-22.3
-26.61
-23.3
-14.57
-2.62
9.74
18.99
21.59
14.68
-3.05
-32.04
-72.65
-123.49
-150.0
-150.0
-150.0
-150.0
-150.0
-150.0
-150.0
-150.0
-150.0
-150.0
-150.0
-150.0
-150.0
-150.0
-150.0
-150.0
-150.0
-150.0
-150.0
-143.97
-100.04
-56.61
-15.18
23.04
58.52
92.3
125.21
150.0
150.0
150.0
150.0
144.89
104.23
56.59
8.01
-35.98
-71.54
-97.16
-114.12
-125.31
-132.66
-139.66
-146.28
-150.0
-148.76
-137.99
-115.62
-79.89
-29.91
33.12
101.05
150.0
150.0
150.0
150.0
150.0
150.0
150.0
150.0
150.0
150.0
150.0
150.0
150.0
150.0
150.0
150.0
150.0
150.0
150.0
150.0
150.0
150.0
150.0
150.0
150.0
150.0
150.0
150.0
150.0
150.0
124.58
105.9
92.67
81.61
71.21
57.07
38.97
18.53
-2.12
-23.56
-47.59
-76.44
-111.33
-150.0
-150.0
-150.0
-150.0
-150.0
-150.0
-150.0
-150.0
-150.0
-150.0
-150.0
-150.0
-150.0
-150.0
-150.0
-150.0
-150.0
-150.0
-94.75
14.06
102.13
150.0
150.0
150.0
150.0
150.0
150.0
150.0
150.0
115.53
78.46
39.57
-5.6
-60.8
-126.91
-150.0
-150.0
-150.0
-150.0
-150.0
-150.0
-150.0
-150.0
-149.87
-86.57
-50.48
-36.34
-34.55
-36.75
-40.31
-47.6
-59.56
-74.4
-87.79
-95.38
-94.84
-86.22
-71.49
-54.93
-40.05
-27.31
-16.35
-5.09
8.06
22.98
37.79
49.49
53.98
48.25
31.56
5.37
-27.15
-62.58
-98.17
-131.95
-150.0
-150.0
-150.0
-150.0
-150.0
-150.0
-150.0
-150.0
-150.0
-150.0
-150.0
-150.0
-150.0
-138.85
-103.49
-62.38
-16.08
34.07
86.16
137.82
150.0
150.0
150.0
150.0
150.0
150.0
150.0
150.0
150.0
150.0
150.0
150.0
124.5
88.83
55.74
26.17
0.96
-19.16
-33.62
-42.17
-45.07
-43.2
-37.87
-30.55
-22.41
-14.04
-5.39
3.98
14.48
25.94
37.42
47.36
54.19
57.07
56.47
54.17
52.84
55.02
62.17
74.05
89.05
104.75
119.15
131.52
142.65
150.0
150.0
150.0
150.0
150.0
150.0
150.0
150.0
150.0
150.0
150.0
150.0
150.0
150.0
150.0
150.0
131.09
93.06
50.29
2.05
-50.66
-105.2
-150.0
-150.0
-150.0
-150.0
-150.0
-150.0
-150.0
-150.0
-150.0
-118.5
-84.17
-54.35
-31.34
-15.48
-4.44
6.37
22.44
48.03
84.0
126.46
150.0
150.0
150.0
150.0
150.0
138.74
120.96
121.89
142.18
150.0
150.0
150.0
150.0
150.0
150.0
150.0
150.0
150.0
150.0
150.0
150.0
150.0
150.0
150.0
150.0
150.0
150.0
141.75
111.04
86.37
66.73
49.33
30.96
9.6
-14.57
-39.26
-61.14
-77.55
-87.82
-93.4
-97.54
-104.03
-115.84
-134.62
-150.0
-150.0
-150.0
-150.0
-150.0
-150.0
-150.0
-150.0
-150.0
-150.0
-150.0
-150.0
-150.0
-150.0
-150.0
-150.0
-150.0
-150.0
-150.0
-150.0
-150.0
-150.0
-150.0
-150.0
-113.34
-83.05
-57.97
-34.8
-9.96
18.54
50.32
82.77
112.46
136.97
150.0
150.0
150.0
150.0
150.0
150.0
150.0
150.0
150.0
150.0
150.0
150.0
150.0
150.0
150.0
150.0
150.0
128.52
87.8
48.7
13.51
-14.5
-33.29
-43.63
-49.08
-54.62
-65.38
-85.61
-117.77
-150.0
-150.0
-150.0
-150.0
-150.0
-150.0
-150.0
-150.0
-150.0
-150.0
-150.0
-150.0
-150.0
-150.0
-134.3
-82.44
-26.62
27.06
71.46
100.6
112.07
108.55
97.52
90.86
98.56
124.82
150.0
150.0
150.0
150.0
150.0
150.0
150.0
150.0
150.0
150.0
150.0
150.0
150.0
150.0
150.0
150.0
150.0
150.0
150.0
150.0
150.0
150.0
150.0
150.0
150.0
150.0
146.85
-37.69
-150.0
-150.0
-150.0
-150.0
-150.0
-150.0
-150.0
-150.0
-150.0
-150.0
-150.0
-150.0
-150.0
-150.0
-150.0
-150.0
-150.0
-150.0
-150.0
-150.0
-150.0
-150.0
-150.0
-150.0
-150.0
-150.0
-150.0
-150.0
-150.0
-150.0
-150.0
-150.0
-150.0
-150.0
-150.0
-150.0
-150.0
-119.12
-60.1
-12.85
26.48
61.39
93.06
121.03
143.45
150.0
150.0
150.0
150.0
150.0
150.0
150.0
150.0
150.0
150.0
150.0
150.0
150.0
150.0
150.0
150.0
150.0
136.27
78.29
30.81
-5.23
-31.98
-50.34
-61.39
-67.79
-72.69
-80.6
-96.07
-122.46
-150.0
-150.0
-150.0
-150.0
-150.0
-150.0
-150.0
-150.0
-150.0
-150.0
-150.0
-150.0
-150.0
-150.0
-150.0
-150.0
-150.0
-150.0
-126.81
-94.03
-57.36
-17.42
23.8
63.43
98.32
127.65
150.0
150.0
150.0
150.0
150.0
150.0
150.0
150.0
150.0
150.0
150.0
150.0
150.0
150.0
150.0
150.0
150.0
150.0
150.0
150.0
150.0
150.0
150.0
150.0
150.0
150.0
150.0
93.43
-8.21
-100.33
-150.0
-150.0
-150.0
-150.0
-150.0
-150.0
-150.0
-150.0
-150.0
-150.0
-150.0
-150.0
-150.0
-150.0
-150.0
-150.0
-150.0
-150.0
-150.0
-150.0
-150.0
-149.94
-115.62
-92.62
-81.97
-82.0
-88.19
-93.29
-90.75
-75.5
-46.05
-4.84
43.09
91.29
133.28
150.0
150.0
150.0
150.0
150.0
150.0
150.0
150.0
150.0
150.0
150.0
150.0
150.0
150.0
150.0
129.43
54.39
-10.51
-61.68
-98.09
-120.72
-131.37
-132.19
-126.13
-117.0
-108.89
-105.26
-107.81
-115.24
-124.11
-130.03
-129.1
-119.96
-104.46
-86.97
-72.7
-65.97
-68.25
-77.74
-89.25
-95.39
-88.58
-63.68
-20.55
34.53
90.04
132.41
150.0
138.65
102.34
53.41
7.1
-24.29
-35.52
-29.42
-14.64
-1.1
4.26
-0.37
-12.39
-26.98
-39.6
-47.43
-49.23
-45.31
-36.17
-21.66
-0.85
26.93
60.79
97.91
134.08
150.0
150.0
150.0
150.0
150.0
150.0
140.79
121.08
99.75
74.26
42.75
4.45
-39.82
-87.68
-136.37
-150.0
-150.0
-150.0
-150.0
-150.0
-150.0
-150.0
