2013-07-03 10:51:24
64.0
-0.0
-0.0
-0.0
-0.0
-0.0
-0.0
-0.0
-0.0
-0.0
-0.0
0.0
0.01
0.01
-0.0
-0.03
-0.05
-0.05
0.0
0.13
0.36
0.66
1.01
1.37
1.72
2.06
2.4
2.79
3.24
3.8
4.42
5.06
5.66
6.2
6.68
7.15
7.68
8.31
9.14
10.09
11.04
11.88
12.56
13.14
13.76
14.65
15.96
17.91
20.32
22.9
25.38
27.58
29.57
31.68
34.32
37.81
42.54
48.15
54.1
59.83
64.97
69.58
74.14
79.34
85.71
93.76
103.0
108.10000000000001
108.10000000000001
108.10000000000001
108.10000000000001
108.10000000000001
108.10000000000001
108.10000000000001
108.10000000000001
108.10000000000001
108.10000000000001
108.10000000000001
108.10000000000001
108.10000000000001
108.10000000000001
108.10000000000001
108.10000000000001
108.10000000000001
80.05
23.07
-34.94
-92.44
-108.38000000000001
-108.38000000000001
-108.38000000000001
-108.38000000000001
-108.38000000000001
-108.38000000000001
-108.38000000000001
-108.38000000000001
-108.38000000000001
-108.38000000000001
-108.38000000000001
-108.38000000000001
-108.38000000000001
-108.38000000000001
-108.38000000000001
-108.38000000000001
-108.38000000000001
-108.38000000000001
-108.38000000000001
-108.38000000000001
-108.38000000000001
-102.24
-51.59
-5.04
36.52
72.45
102.47
108.10000000000001
108.10000000000001
108.10000000000001
108.10000000000001
108.10000000000001
108.10000000000001
108.10000000000001
108.10000000000001
108.10000000000001
108.10000000000001
108.10000000000001
108.10000000000001
108.10000000000001
108.10000000000001
108.10000000000001
108.10000000000001
108.10000000000001
108.10000000000001
108.10000000000001
108.10000000000001
103.97
97.63
91.61
85.92
80.59
75.6
70.99
66.75
62.89
59.42
56.33
53.62
51.3
49.37
47.8
46.6
45.72
45.1
44.65
44.24
43.71
42.87
41.55
39.58
36.83
33.24
28.81
23.58
17.7
11.39
4.88
-1.53
-7.57
-12.99
-17.59
-21.24
-23.86
-25.46
-26.1
-25.88
-24.95
-23.45
-21.54
-19.35
-16.97
-14.47
-11.91
-9.32
-6.73
-4.17
-1.64
0.87
3.36
5.84
8.33
10.88
13.44
16.04
18.68
21.4
24.24
27.22
30.41
33.83
37.55
41.46
45.5
49.64
53.84
58.13
62.52
67.07
71.85
76.99
82.34
87.84
93.45
99.13
104.86
108.10000000000001
108.10000000000001
108.10000000000001
108.10000000000001
108.10000000000001
108.10000000000001
108.10000000000001
108.10000000000001
108.10000000000001
108.10000000000001
108.10000000000001
108.10000000000001
108.10000000000001
108.10000000000001
108.10000000000001
108.10000000000001
108.10000000000001
108.10000000000001
107.18
100.44
93.89
87.67
81.65
75.75
69.96
64.28
58.73
53.37
48.24
43.44
39.08
35.04
31.26
27.7
24.35
21.2
18.25
15.51
13.01
10.8
8.78
6.88
5.1
3.44
1.92
0.57
-0.54
-1.36
-1.81
-1.92
-1.68
-1.14
-0.34
0.61
1.61
2.55
3.27
3.66
3.61
3.05
1.95
0.38
-1.6
-3.84
-6.18
-8.44
-10.49
-12.16
-13.37
-14.07
-14.25
-13.95
-13.22
-12.16
-10.86
-9.41
-7.88
-6.36
-4.88
-3.49
-2.22
-1.09
-0.13
0.65
1.23
1.59
1.69
1.49
1.02
0.29
-0.63
-1.66
-2.71
-3.73
-4.67
-5.56
-6.43
-7.32
-8.24
-9.21
-10.17
-11.12
-12.04
-12.97
-13.99
-15.17
-16.57
-18.18
-19.91
-21.65
-23.26
-24.73
-26.14
-27.71
-29.67
-32.21
-35.32
-38.82
-42.39
-45.71
-48.68
-51.45
-54.42
-58.1
-62.85
-68.73
-75.4
-82.31
-88.88
-94.91
-100.62
-106.67
-108.38000000000001
-108.38000000000001
-108.38000000000001
-108.38000000000001
-108.38000000000001
-108.38000000000001
-108.38000000000001
-108.38000000000001
-108.38000000000001
-108.38000000000001
-108.38000000000001
-108.38000000000001
-108.38000000000001
-108.38000000000001
-108.38000000000001
-108.38000000000001
-108.38000000000001
-108.38000000000001
-108.38000000000001
-108.38000000000001
-108.38000000000001
-108.38000000000001
-108.38000000000001
-108.38000000000001
-108.38000000000001
-108.38000000000001
-108.38000000000001
-108.38000000000001
-108.38000000000001
-108.38000000000001
-108.38000000000001
-104.5
-91.9
-78.39
-64.0
-49.45
-35.99
-24.65
-15.91
-9.47
-4.51
-0.09
4.43
9.16
13.76
17.7
20.53
22.09
22.45
21.98
21.04
19.88
18.49
16.6
13.79
9.79
4.7
-0.84
-5.71
-8.65
-8.64
-5.31
0.96
9.17
17.96
25.97
32.15
36.09
38.03
38.85
39.82
42.22
46.9
54.05
63.07
72.73
81.48
87.72
90.25
88.48
82.61
73.57
62.84
52.09
42.71
35.55
30.83
28.29
27.41
27.67
28.66
30.0
31.32
32.16
32.03
30.46
27.1
21.83
14.71
6.25
-2.71
-11.04
-17.56
-21.33
-22.0
-19.85
-15.72
-10.63
-5.38
-0.42
4.22
8.75
13.37
18.18
23.04
27.66
31.73
34.95
37.11
38.12
38.04
37.12
35.75
34.41
33.63
33.72
34.73
36.35
38.09
39.42
39.85
39.02
36.64
32.52
26.56
18.93
10.02
0.45
-9.12
-18.13
-26.12
-32.69
-37.42
-39.92
-40.05
-38.16
-35.1
-32.04
-30.17
-30.21
-32.42
-36.41
-41.51
-46.98
-52.02
-55.94
-58.18
-58.3
-56.1
-51.7
-45.46
-38.09
-30.45
-23.3
-17.2
-12.26
-8.19
-4.34
-0.13
4.82
10.43
16.35
22.11
27.36
31.91
35.58
38.19
39.51
39.46
38.34
36.79
35.69
35.66
36.77
38.4
39.62
39.51
37.62
34.13
29.61
24.73
19.91
15.32
11.0
6.94
3.24
0.06
-2.44
-4.27
-5.55
-6.51
-7.35
-8.15
-8.89
-9.5
-9.98
-10.51
-11.5
-13.33
-16.18
-19.82
-23.37
-25.69
-25.62
-22.49
-16.38
-8.05
1.32
10.71
19.37
27.08
33.86
39.86
45.08
49.32
52.32
53.83
53.78
52.32
49.86
46.94
44.14
41.85
40.15
38.87
37.64
36.21
34.36
32.02
28.98
24.87
19.3
12.05
3.42
-5.74
-14.25
-21.09
-25.82
-28.71
-30.56
-32.23
-34.27
-36.82
-39.64
-42.42
-45.07
-47.68
-50.47
-53.61
-56.92
-59.86
-61.55
-60.98
-57.36
-50.39
-40.37
-28.17
-15.07
-2.34
9.0
18.4
25.8
31.57
36.3
40.61
44.97
49.67
54.79
60.24
65.86
71.28
75.85
78.69
78.79
75.44
68.62
59.16
48.67
38.99
31.58
27.1
25.42
26.02
28.41
32.46
38.34
46.07
55.19
64.65
72.95
78.48
79.89
76.25
66.97
51.98
31.73
7.37
-19.11
-45.13
-67.98
-85.55
-96.69
-101.49
-101.0
-96.7
-90.1
-82.25
-73.75
-64.75
-55.18
-44.87
-33.82
-22.41
-11.46
-2.1
4.55
7.76
7.62
4.97
1.24
-2.15
-4.18
-4.55
-3.53
-1.69
0.42
2.52
4.59
6.63
8.55
10.14
11.18
11.58
11.58
11.44
11.37
11.24
10.63
9.04
6.28
2.67
-0.95
-3.43
-3.81
-1.69
2.54
7.8
12.64
15.5
15.1
10.64
2.12
-9.53
-22.64
-35.14
-45.3
-52.32
-56.53
-59.04
-61.04
-63.25
-65.55
-67.33
-67.89
-66.91
-64.46
-60.8
-56.09
-50.3
-43.45
-35.77
-27.88
-20.52
-14.26
-9.22
-5.12
-1.5
2.14
6.01
10.13
14.31
18.3
21.77
24.4
25.86
25.86
24.38
21.66
18.35
15.23
13.14
12.59
13.68
16.18
19.48
22.9
25.81
27.82
28.72
28.55
27.47
25.72
23.56
21.28
19.03
16.86
14.78
12.72
10.69
8.69
6.69
4.7
2.64
0.52
-1.67
-3.82
-5.76
-7.38
-8.58
-9.41
-9.99
-10.51
-11.0
-11.53
-12.05
-12.6
-13.3
-14.31
-15.77
-17.55
-19.27
-20.26
-19.8
-17.4
-13.0
-7.05
-0.37
6.16
11.79
16.21
19.44
21.72
23.27
24.13
24.12
23.1
21.05
18.28
15.33
12.73
10.85
9.64
8.87
8.11
7.18
6.08
5.1
4.49
4.3
4.39
4.48
4.37
3.97
3.39
2.71
1.83
0.47
-1.87
-5.53
-10.63
-16.85
-23.62
-30.17
-35.79
-39.93
-42.2
-42.4
-40.5
-36.68
-31.32
-25.02
-18.46
-12.22
-6.76
-2.18
1.55
4.6
7.0
8.72
9.67
9.8
9.24
8.31
7.38
6.68
6.22
5.8
5.19
4.32
3.32
2.57
2.33
2.7
3.51
4.42
5.22
5.89
6.63
7.62
8.93
10.27
11.24
11.36
10.39
8.23
4.9
0.53
-4.65
-10.17
-15.35
-19.29
-21.16
-20.54
-17.55
-12.86
-7.4
-1.93
3.19
8.06
13.05
18.47
24.32
30.18
35.42
39.42
41.91
43.01
43.12
42.85
42.62
42.65
42.9
43.18
43.23
42.88
42.03
40.68
38.85
36.56
33.8
30.52
26.66
22.25
17.44
12.58
8.11
4.59
2.39
1.6
1.97
2.81
3.2
2.2
-0.85
-6.06
-12.85
-20.05
-26.24
-30.21
-31.36
-29.79
-26.2
-21.52
-16.55
-11.7
-7.04
-2.5
2.1
6.8
11.55
16.32
20.96
25.34
29.18
32.17
33.98
34.41
33.45
31.25
28.22
24.77
21.44
18.54
16.26
14.45
12.8
10.9
8.52
5.69
2.68
-0.04
-2.14
-3.48
-4.2
-4.62
-5.12
-6.0
-7.45
-9.6
-12.35
-15.55
-19.03
-22.62
-26.4
-30.49
-35.04
-39.93
-44.66
-48.38
-50.21
-49.59
-46.44
-41.3
-35.05
-28.6
-22.58
-17.22
-12.42
-7.92
-3.52
0.87
5.12
9.06
12.43
15.06
16.9
17.98
18.43
18.32
17.81
17.03
16.05
14.94
13.69
12.28
10.66
8.94
7.26
5.82
4.7
3.91
3.31
2.75
2.23
1.87
1.87
2.39
3.31
4.36
5.07
5.06
4.21
2.72
0.94
-0.73
-2.06
-2.96
-3.56
-4.06
-4.71
-5.91
-8.03
-11.44
-16.24
-22.07
-28.11
-33.19
-36.21
-36.48
-33.95
-29.19
-23.17
-16.69
-10.31
-4.16
1.88
7.98
14.18
20.29
25.99
30.98
35.11
38.35
40.77
42.44
43.4
43.7
43.43
42.79
42.05
41.39
40.85
40.26
39.38
37.97
36.01
33.6
30.96
28.32
25.88
23.79
22.13
20.96
20.09
19.3
18.23
16.64
14.43
11.69
8.62
5.39
2.11
-1.21
-4.46
-7.48
-10.05
-12.06
-13.66
-15.23
-17.31
-20.23
-23.96
-27.92
-31.09
-32.39
-31.01
-26.72
-19.92
-11.55
-2.68
5.73
13.03
18.99
23.57
26.94
29.18
30.43
30.77
30.31
29.16
27.52
25.6
23.56
21.65
19.94
18.57
17.54
16.84
16.48
16.38
16.48
16.67
16.84
16.8
16.42
15.56
14.24
12.54
10.6
8.65
6.81
5.16
3.63
2.06
0.29
-1.75
-3.95
-6.04
-7.69
-8.65
-8.84
-8.42
-7.71
-7.15
-7.15
-8.02
-9.91
-12.69
-15.87
-18.75
-20.38
-19.97
-17.07
-11.74
-4.54
3.53
11.33
17.89
22.54
25.09
25.72
24.92
23.26
21.35
19.61
18.4
17.95
18.4
19.75
21.87
24.41
26.97
29.05
30.22
30.17
28.62
25.47
20.76
14.74
7.9
1.0
-5.07
-9.38
-11.28
-10.58
-7.66
-3.45
0.76
3.63
4.07
1.6
-3.55
-10.36
-17.31
-22.78
-25.67
-25.86
-24.55
-23.98
-26.78
-35.0
-49.13
-67.65
-87.05
-102.73
-108.38000000000001
-106.79
-92.06
-68.61
-41.06
-14.71
5.92
18.21
21.71
17.78
8.71
-2.89
-14.68
-24.7
-31.45
-33.99
-32.14
-26.49
-18.42
-9.66
-1.82
4.02
7.58
9.3
10.12
10.97
12.5
14.8
17.44
19.82
21.37
21.92
21.61
20.92
20.22
19.75
19.45
19.0
18.02
16.11
13.0
8.6
3.11
-2.97
-8.79
-13.31
-15.62
-15.13
-11.86
-6.33
0.62
8.0
15.01
21.02
25.72
28.78
30.1
29.61
27.33
23.42
17.97
11.21
3.3
-5.36
-14.25
-22.61
-29.63
-34.74
-37.63
-38.56
-38.0
-36.6
-34.8
-32.88
-30.88
-28.72
-26.48
-24.29
-22.45
-21.25
-20.97
-21.63
-22.99
-24.59
-25.87
-26.45
-26.15
-25.27
-24.36
-24.12
-25.13
-27.54
-31.02
-34.78
-37.85
-39.4
-38.91
-36.36
-32.05
-26.5
-20.26
-13.83
-7.65
-2.09
2.59
6.19
8.67
10.2
11.03
11.48
11.76
11.92
11.92
11.61
10.87
9.62
7.94
5.95
3.79
1.52
-0.87
-3.37
-5.86
-8.0
-9.23
-9.09
-7.24
-3.74
0.96
6.21
11.28
15.52
18.41
19.61
18.94
16.43
12.41
7.53
2.65
-1.3
-3.53
-3.64
-1.63
2.13
7.02
12.38
17.58
22.19
25.88
28.55
30.26
31.28
32.03
32.99
34.52
36.77
39.62
42.7
45.56
47.79
49.0
49.03
47.76
45.33
41.98
38.08
34.05
30.11
26.33
22.49
18.36
13.68
8.45
2.89
-2.65
-7.8
-12.34
-16.22
-19.61
-22.73
-25.9
-29.38
-33.3
-37.56
-41.62
-44.67
-45.74
-44.06
-39.27
-31.74
-22.41
-12.48
-3.23
4.46
10.13
13.78
15.74
16.5
16.58
16.4
16.31
16.4
16.77
17.4
18.27
19.35
20.5
21.49
22.03
21.92
21.13
19.91
18.63
17.59
16.8
15.95
14.56
12.27
9.06
5.24
1.46
-1.72
-4.06
-5.66
-6.94
-8.29
-10.01
-12.21
-15.05
-18.61
-22.91
-27.64
-32.0
-34.88
-35.15
-32.09
-25.83
-17.28
-7.79
1.32
9.15
15.44
20.38
24.32
27.63
30.5
32.99
35.15
36.99
38.6
40.03
41.28
42.13
42.2
41.05
38.38
34.25
29.15
23.84
19.07
15.32
12.56
10.4
8.27
5.77
2.75
-0.75
-4.49
-8.34
-12.2
-16.1
-20.05
-24.0
-27.81
-31.17
-33.85
-35.71
-36.89
-37.81
-39.09
-41.28
-44.61
-48.89
-53.41
-57.17
-59.17
-58.63
-55.18
-49.03
-40.83
-31.51
-22.02
-13.08
-5.05
2.13
8.62
14.65
20.28
25.44
30.08
34.23
38.04
41.6
44.84
47.52
49.34
50.05
49.78
48.89
47.96
47.42
47.46
48.03
48.83
49.35
48.99
47.21
43.69
38.46
32.08
25.4
19.25
14.12
9.98
6.34
2.68
-1.32
-5.64
-10.05
-14.22
-17.91
-21.02
-23.45
-25.15
-26.19
-26.81
-27.39
-28.25
-29.47
-30.7
-31.32
-30.57
-27.93
-23.37
-17.29
-10.46
-3.71
2.24
6.94
10.33
12.66
14.38
16.05
18.17
21.0
24.41
27.78
30.18
30.63
28.43
23.59
16.79
9.31
2.54
-2.44
-5.11
-5.61
-4.37
-2.06
0.86
4.02
7.23
10.23
12.69
14.28
14.71
13.86
11.76
8.68
4.95
0.9
-3.29
-7.58
-12.08
-16.83
-21.57
-25.62
-27.92
-27.36
-23.18
-15.26
-4.3
8.37
21.34
33.36
43.76
52.32
59.09
64.24
67.93
70.36
71.89
72.97
74.04
75.3
76.5
76.83
75.07
70.03
60.96
48.03
32.38
15.79
0.21
-12.98
-23.21
-30.89
-36.9
-42.19
-47.29
-52.27
-56.78
-60.45
-63.13
-65.03
-66.55
-68.22
-70.39
-73.14
-76.25
-79.31
-81.78
-83.15
-82.9
-80.55
-75.78
-68.59
-59.44
-49.18
-38.99
-29.93
-22.7
-17.38
-13.48
-10.22
-6.87
-2.99
1.38
5.82
9.71
12.47
13.77
13.49
11.78
8.9
5.19
1.09
-2.86
-6.0
-7.61
-7.14
-4.36
0.53
6.81
13.46
19.45
23.94
26.57
27.42
26.93
25.55
23.57
20.93
17.27
12.13
5.16
-3.55
-13.39
-23.25
-31.81
-37.82
-40.4
-39.43
-35.43
-29.41
-22.47
-15.53
-9.17
-3.57
1.24
5.37
8.97
12.28
15.57
19.1
22.96
26.96
30.71
33.75
35.81
36.86
37.17
37.08
36.78
36.26
35.3
33.7
31.31
28.26
24.66
20.72
16.57
12.14
7.38
2.25
-3.16
-8.65
-13.87
-18.58
-22.62
-25.96
-28.76
-31.16
-33.29
-35.26
-37.14
-38.98
-40.67
-41.9
-42.11
-40.59
-36.73
-30.28
-21.48
-11.0
0.26
11.39
21.7
30.78
38.49
44.91
50.22
54.62
58.27
61.16
63.22
64.32
64.35
63.19
60.84
57.3
52.67
47.2
41.32
35.59
30.59
26.67
23.78
21.54
19.42
17.07
14.55
12.33
11.08
11.24
12.8
15.26
17.84
19.94
21.34
22.23
22.96
23.84
24.88
25.85
26.35
25.54
22.27
15.04
2.51
-15.83
-38.99
-64.43
-88.7
-108.38000000000001
-108.38000000000001
-108.38000000000001
-108.38000000000001
-108.38000000000001
-108.38000000000001
-102.41
-89.25
-74.92
-60.43
-46.87
-34.92
-24.77
-15.97
-7.75
0.54
9.18
17.85
25.85
32.39
36.98
39.63
40.97
41.87
43.03
44.61
46.14
46.84
46.01
43.44
39.47
34.71
29.72
24.78
19.87
14.86
9.64
4.01
-2.5
-10.71
-21.42
-34.8
-49.93
-64.73
-76.8
-84.2
-86.3
-83.91
-78.61
-71.93
-64.73
-57.15
-48.91
-39.99
-30.73
-21.81
-13.82
-6.93
-0.86
4.91
10.78
16.78
22.46
27.16
30.28
31.63
31.63
30.98
30.4
30.1
29.81
28.87
26.74
23.43
19.49
15.96
13.62
12.84
13.25
14.08
14.51
14.07
12.85
11.26
9.89
9.05
8.81
8.74
8.32
6.94
4.18
0.0
-5.19
-10.52
-14.92
-17.26
-16.72
-13.08
-6.7
1.45
10.1
17.97
24.07
27.89
29.57
29.71
29.14
28.71
28.89
29.78
31.12
32.51
33.51
33.87
33.5
32.56
31.36
30.22
29.49
29.26
29.38
29.42
28.89
27.35
24.63
20.85
16.32
11.46
6.75
2.55
-0.88
-3.4
-5.13
-6.31
-7.28
-8.35
-9.72
-11.38
-13.21
-14.94
-16.26
-16.95
-16.95
-16.41
-15.65
-14.99
-14.5
-13.97
-12.9
-10.68
-6.85
-1.24
5.99
14.39
23.23
31.67
38.76
43.61
45.65
44.73
41.19
35.68
29.01
21.86
14.75
7.98
1.79
-3.6
-7.96
-11.14
-13.07
-13.85
-13.79
-13.29
-12.8
-12.73
-13.32
-14.65
-16.74
-19.57
-23.13
-27.49
-32.61
-38.33
-44.32
-50.1
-55.24
-59.4
-62.42
-64.33
-65.21
-65.27
-64.72
-63.9
-63.13
-62.56
-61.98
-60.7
-57.75
-52.29
-44.05
-33.59
-22.23
-11.54
-2.78
3.51
7.58
10.14
11.86
13.08
13.71
13.39
11.83
9.07
5.45
1.57
-1.98
-4.56
-5.74
-5.19
-2.79
1.33
6.74
12.77
18.66
23.65
27.24
29.15
29.4
28.22
25.94
23.0
19.82
16.77
14.05
11.63
9.34
6.94
4.24
1.19
-2.09
-5.42
-8.64
-11.76
-14.99
-18.61
-22.79
-27.31
-31.58
-34.64
-35.54
-33.53
-28.47
-20.83
-11.52
-1.62
7.93
16.48
23.7
29.45
33.67
36.34
37.52
37.47
36.6
35.44
34.52
34.11
34.16
34.37
34.27
33.53
32.15
30.34
28.6
27.33
26.75
26.8
27.24
27.72
27.97
27.78
27.11
26.13
25.06
24.23
23.83
23.84
23.97
23.78
22.94
21.43
19.73
18.54
18.48
19.72
21.72
23.33
23.04
19.39
11.48
-0.69
-16.16
-33.06
-48.95
-61.5
-68.94
-70.65
-67.44
-61.21
-54.38
-49.05
-46.36
-46.21
-47.66
-49.38
-50.36
-50.15
-48.74
-46.28
-42.72
-37.93
-31.71
-24.21
-15.91
-7.49
0.38
7.36
13.31
18.26
22.25
25.33
27.46
28.69
29.07
28.74
27.8
26.37
24.59
22.62
20.64
18.77
16.98
15.11
12.93
10.37
7.47
4.39
1.24
-2.05
-5.73
-10.04
-14.84
-19.52
-23.02
-24.19
-22.35
-17.49
-10.41
-2.38
5.29
11.61
16.09
18.74
19.95
20.16
19.83
19.35
19.0
18.93
19.05
18.91
17.72
14.56
8.82
0.52
-9.57
-20.06
-29.46
-36.72
-41.38
-43.63
-43.93
-42.78
-40.56
-37.66
-34.4
-31.09
-27.98
-25.05
-22.19
-19.3
-16.48
-13.99
-12.19
-11.41
-11.67
-12.86
-14.48
-15.91
-16.43
-15.35
-12.22
-7.03
-0.3
7.08
14.05
19.89
24.29
27.5
29.93
31.98
33.77
35.17
35.99
36.08
35.49
34.36
32.81
30.87
28.53
25.84
23.0
20.33
18.11
16.48
15.26
14.11
12.61
10.49
7.77
4.65
1.45
-1.7
-4.91
-8.57
-13.09
-18.69
-25.22
-32.18
-38.92
-44.98
-50.16
-54.61
-58.54
-62.03
-64.79
-66.31
-66.09
-63.98
-60.45
-56.5
-53.53
-52.76
-54.98
-60.12
-67.38
-75.39
-82.58
-87.99
-91.68
-95.11
-100.8
-108.38000000000001
-108.38000000000001
-108.38000000000001
-108.38000000000001
-108.38000000000001
-108.38000000000001
-108.38000000000001
-108.38000000000001
-108.38000000000001
-108.38000000000001
-108.38000000000001
-108.38000000000001
-108.38000000000001
-108.38000000000001
-108.38000000000001
-108.38000000000001
-108.38000000000001
-108.38000000000001
-108.38000000000001
-108.38000000000001
-108.38000000000001
-108.38000000000001
-108.38000000000001
-108.38000000000001
-108.38000000000001
-103.52
-90.33
-79.24
-70.63
-64.03
-58.47
-52.79
-46.24
-38.62
-30.36
-22.2
-14.74
-8.34
-2.81
2.25
7.42
13.19
19.88
27.62
36.46
46.32
57.04
68.44
80.15
91.83
103.25
108.10000000000001
108.10000000000001
108.10000000000001
108.10000000000001
108.10000000000001
108.10000000000001
108.10000000000001
108.10000000000001
108.10000000000001
108.10000000000001
108.10000000000001
108.10000000000001
108.10000000000001
108.10000000000001
108.10000000000001
108.10000000000001
108.10000000000001
108.10000000000001
108.10000000000001
108.10000000000001
108.10000000000001
108.10000000000001
108.10000000000001
108.10000000000001
108.10000000000001
108.10000000000001
108.10000000000001
108.10000000000001
108.10000000000001
108.10000000000001
108.10000000000001
108.10000000000001
108.10000000000001
108.10000000000001
108.10000000000001
108.10000000000001
108.10000000000001
108.10000000000001
104.94
95.28
87.4
81.2
76.11
71.31
66.07
59.88
52.67
44.73
36.57
28.74
21.67
15.63
10.7
6.9
4.23
2.75
2.44
3.15
4.51
5.88
6.51
5.82
3.6
0.15
-3.91
-7.82
-11.06
-13.44
-15.18
-16.66
-18.19
-19.98
-21.88
-23.65
-24.91
-25.29
-24.53
-22.51
-19.22
-14.84
-9.63
-3.93
1.82
7.2
11.83
15.48
18.06
19.74
20.72
21.18
21.12
20.36
18.74
16.14
12.67
8.55
4.08
-0.38
-4.47
-7.69
-9.53
-9.57
-7.81
-4.76
-1.46
0.9
1.4
-0.29
-3.8
-8.28
-12.75
-16.49
-19.2
-20.97
-22.18
-23.15
-24.14
-25.27
-26.62
-28.27
-30.42
-33.2
-36.59
-40.32
-43.87
-46.75
-48.61
-49.46
-49.69
-49.8
-50.1
-50.56
-50.81
-50.33
-48.89
-46.49
-43.47
-40.16
-36.59
-32.42
-27.04
-19.97
-11.0
-0.43
11.17
23.03
34.44
44.75
53.39
59.89
63.88
65.32
64.51
62.06
58.69
54.9
50.86
46.32
40.97
34.7
27.91
21.5
16.58
14.04
14.13
16.21
18.81
20.24
19.13
15.08
8.89
2.4
-2.24
-3.37
-0.55
5.12
11.36
15.27
14.12
6.15
-8.71
-28.17
-47.6
-60.8
-61.82
-47.28
-18.14
19.87
57.95
87.2
101.75
100.47
86.61
65.7
42.93
21.53
2.55
-14.06
-28.27
-39.39
-46.37
-48.56
-46.45
-41.61
-35.95
-30.93
-26.82
-22.85
-17.92
-11.41
-3.68
3.96
9.83
12.71
12.49
10.19
7.56
6.26
7.11
9.62
12.3
13.22
10.96
5.25
-2.99
-11.88
-19.42
-24.08
-25.22
-23.16
-18.87
-13.72
-9.06
-5.88
-4.63
-5.02
-6.15
-6.78
-5.79
-2.66
2.29
8.03
13.2
16.75
18.19
17.72
16.0
13.82
11.83
10.51
10.17
10.96
12.91
15.78
18.98
21.76
23.35
23.22
21.2
17.45
12.3
6.2
-0.38
-6.94
-12.92
-17.86
-21.44
-23.6
-24.5
-24.51
-24.01
-23.53
-23.56
-24.58
-27.01
-30.92
-36.09
-41.98
-47.88
-52.87
-56.1
-56.7
-54.08
-48.16
-39.4
-28.93
-18.13
-8.28
0.06
6.95
12.97
18.77
24.58
30.25
35.29
39.24
41.92
43.47
44.25
44.71
45.19
45.93
47.12
48.75
50.69
52.61
54.13
54.85
54.64
53.54
51.73
49.38
46.47
42.85
38.41
33.06
26.69
19.02
9.44
-2.98
-19.01
-38.87
-61.76
-85.9
-108.38000000000001
-108.38000000000001
-108.38000000000001
-108.38000000000001
-108.38000000000001
-108.38000000000001
-108.38000000000001
-105.41
-83.97
-60.92
-37.66
-15.58
4.08
20.25
32.29
40.08
44.22
45.85
46.4
47.16
48.99
52.13
56.33
61.08
65.79
69.89
72.78
73.84
72.6
68.92
63.26
56.5
49.7
43.69
38.7
34.47
30.5
26.51
22.5
18.77
15.61
12.92
10.36
7.45
3.93
-0.15
-4.63
-9.6
-15.7
-24.03
-35.6
-50.7
-68.44
-86.8
-103.26
-108.38000000000001
-108.38000000000001
-108.38000000000001
-108.38000000000001
-108.38000000000001
-98.1
-82.63
-65.99
-50.06
-36.61
-26.77
-20.61
-17.11
-14.74
-12.02
-8.1
-3.01
2.71
8.33
13.37
17.75
21.68
25.39
29.03
32.53
35.76
38.62
41.11
43.31
45.2
46.72
47.84
48.74
49.81
51.55
54.13
57.11
59.37
59.35
55.59
47.18
34.06
17.01
-2.65
-23.3
-43.26
-61.0
-75.31
-85.49
-91.39
-93.39
-91.98
-87.62
-80.49
-70.8
-59.03
-46.15
-33.57
-22.75
-14.74
-9.94
-8.15
-8.74
-10.92
-13.9
-16.85
-19.07
-20.04
-19.71
-18.54
-17.45
-17.57
-19.89
-25.01
-32.89
-42.77
-53.15
-61.86
-66.29
-63.89
-53.05
-33.96
-9.2
16.57
37.86
50.36
52.66
46.99
38.44
32.78
34.05
42.73
55.83
68.3
75.35
74.45
65.96
52.63
38.07
25.28
15.7
9.04
3.88
-1.64
-8.97
-18.76
-30.61
-43.17
-54.14
-60.55
-59.27
-47.95
-26.19
3.62
36.33
65.32
84.48
90.5
84.08
69.58
53.34
41.47
38.06
44.2
58.15
75.94
92.26
101.65
99.6
83.95
55.59
18.42
-21.81
-58.82
-87.31
-103.64
-106.13
-95.06
-72.8
-43.74
-13.73
11.18
26.69
31.76
29.0
23.58
20.91
24.36
33.89
46.29
56.7
60.89
56.9
45.62
30.22
14.52
1.34
-8.58
-16.55
-25.04
-36.26
-51.01
-68.32
-85.77
-100.45
-108.38000000000001
-108.38000000000001
-104.45
-88.01
-62.61
-30.29
4.85
37.36
61.83
74.86
76.41
69.74
60.1
52.36
49.22
50.32
53.04
53.82
49.78
39.66
23.8
3.8
-18.17
-39.74
-58.65
-72.87
-80.79
-81.42
-74.63
-61.41
-43.82
-24.9
-7.95
4.23
10.18
10.08
5.44
-1.44
-8.48
-14.27
-18.21
-20.08
-19.77
-17.16
-12.34
-6.05
0.16
4.22
4.26
-0.61
-9.86
-21.74
-34.1
-45.12
-53.77
-59.48
-61.59
-58.9
-49.93
-33.78
-11.31
14.36
38.59
56.81
66.56
68.51
65.97
63.21
63.22
66.38
70.68
73.03
71.02
64.2
53.95
42.51
31.82
22.69
14.96
8.05
1.83
-3.28
-6.4
-6.86
-4.73
-0.79
3.55
6.94
8.5
8.2
6.69
5.11
4.6
5.86
9.13
13.89
19.24
23.93
26.8
26.98
24.13
18.53
10.93
2.39
-6.14
-13.86
-20.34
-25.42
-29.3
-32.38
-35.39
-39.2
-44.57
-51.96
-61.12
-71.14
-80.8
-88.88
-94.65
-97.9
-98.96
-98.31
-96.39
-93.57
-90.06
-86.11
-81.86
-77.47
-72.91
-68.05
-62.64
-56.35
-48.85
-39.91
-29.63
-18.62
-8.16
0.18
4.88
5.38
2.46
-1.82
-4.81
-4.23
0.94
10.19
21.86
33.8
44.01
50.97
53.62
51.46
44.59
33.99
21.58
9.92
1.36
-2.73
-2.38
0.96
5.24
8.53
9.73
8.56
5.48
1.21
-3.51
-8.0
-11.65
-13.83
-14.09
-12.26
-8.68
-4.16
0.16
3.1
3.82
1.88
-2.49
-8.61
-15.41
-21.71
-26.36
-28.47
-27.43
-22.82
-14.52
-2.47
13.07
31.4
51.22
70.5
86.88
98.14
102.81
100.52
92.16
79.58
65.12
51.06
39.19
30.41
24.66
21.0
17.94
14.0
8.23
0.56
-8.22
-16.78
-23.8
-28.38
-30.1
-28.96
-25.15
-18.98
-10.86
-1.51
8.02
16.36
22.19
24.44
22.64
16.99
8.29
-2.28
-13.4
-23.9
-32.91
-39.97
-45.02
-48.3
-50.16
-50.96
-51.04
-50.65
-50.01
-49.29
-48.49
-47.39
-45.6
-42.71
-38.54
-33.28
-27.44
-21.61
-16.36
-11.94
-8.4
-5.67
-3.66
-2.33
-1.57
-1.16
-0.76
-0.07
1.07
2.53
4.01
5.17
5.76
5.77
5.35
4.77
4.24
3.82
3.45
2.99
2.3
1.34
0.06
-1.62
-3.8
-6.57
-9.86
-13.36
-16.54
-18.69
-19.21
-17.77
-14.46
-9.75
-4.32
1.25
6.51
11.3
15.59
19.32
22.41
24.69
26.12
26.83
27.16
27.5
28.08
28.87
29.53
29.63
28.86
27.26
25.1
22.79
20.65
18.77
17.15
15.77
14.75
14.24
14.29
14.76
15.31
15.54
15.06
13.65
11.25
7.95
3.98
-0.33
-4.61
-8.48
-11.58
-13.8
-15.14
-15.85
-16.41
-17.41
-19.58
-23.43
-29.2
-36.55
-44.67
-52.39
-58.55
-62.36
-63.61
-62.73
-60.45
-57.56
-54.44
-50.96
-46.53
-40.46
-32.4
-22.53
-11.62
-0.72
9.29
17.99
25.5
32.29
38.85
45.36
51.62
57.09
61.13
63.28
63.41
61.77
58.84
55.16
51.11
46.99
42.79
38.47
33.94
29.16
24.17
19.06
13.9
8.74
3.64
-1.14
-5.21
-8.06
-9.32
-9.05
-7.67
-5.79
-3.76
-1.39
1.94
6.63
12.06
16.18
16.08
9.33
-4.47
-23.02
-41.89
-56.33
-63.26
-62.42
-56.06
-47.39
-38.93
-31.46
-24.35
-16.48
-7.47
1.92
10.2
15.97
18.66
18.84
17.77
16.88
17.15
18.83
21.35
23.8
25.2
25.11
23.73
21.81
20.37
20.11
21.16
23.08
25.09
26.62
27.51
28.0
28.4
28.8
28.83
27.78
24.99
20.32
14.48
8.88
5.27
4.88
8.02
13.79
20.66
27.08
32.04
35.06
35.57
32.46
24.11
9.39
-11.37
-35.66
-59.29
-77.92
-88.78
-91.63
-88.36
-81.72
-73.89
-65.78
-57.22
-47.77
-37.53
-27.24
-17.88
-10.02
-3.52
2.34
8.32
14.67
20.93
26.07
29.01
29.12
26.65
22.72
18.9
16.67
16.79
19.12
22.54
25.62
27.03
26.09
22.92
18.29
13.16
8.25
3.8
-0.38
-4.64
-9.19
-13.97
-18.65
-22.78
-25.95
-27.86
-28.41
-27.62
-25.62
-22.64
-18.98
-15.01
-11.26
-8.27
-6.55
-6.3
-7.28
-8.92
-10.39
-10.96
-10.22
-8.31
-5.69
-3.03
-0.85
0.59
1.26
1.4
1.31
1.32
1.71
2.53
3.63
4.67
5.28
5.24
4.63
3.7
2.81
2.18
1.81
1.47
0.75
-0.81
-3.62
-7.83
-13.27
-19.33
-25.0
-29.06
-30.49
-28.79
-24.07
-17.23
-9.4
-1.76
4.88
10.15
14.06
16.9
18.91
20.32
21.22
21.69
21.88
21.98
22.17
22.53
23.03
23.48
23.74
23.74
23.47
23.02
22.42
21.71
20.82
19.7
18.39
17.0
15.68
14.58
13.85
13.51
13.5
13.59
13.45
12.66
10.99
8.43
5.32
2.47
0.76
1.06
3.86
9.18
16.55
25.21
34.26
42.93
50.61
56.83
61.33
64.04
65.15
65.17
64.76
64.66
65.41
67.23
70.01
73.38
76.93
80.21
83.01
85.19
86.7
87.48
87.37
85.91
82.42
76.03
65.85
51.32
32.38
9.66
-15.5
-41.2
-65.26
-85.61
-100.75
-108.38000000000001
-108.38000000000001
-108.38000000000001
-108.38000000000001
-106.65
-102.5
-98.17
-93.11
-86.7
-78.6
-69.1
-58.97
-49.15
-40.45
-33.33
-27.83
-23.72
-20.61
-18.1
-15.85
-13.67
-11.43
-9.12
-6.8
-4.56
-2.55
-0.88
0.4
1.37
2.2
3.13
4.27
5.57
6.85
7.72
7.84
6.91
4.78
1.54
-2.57
-7.07
-11.4
-15.0
-17.57
-19.09
-19.82
-20.2
-20.6
-21.27
-22.3
-23.68
-25.31
-26.97
-28.39
-29.19
-29.11
-28.04
-26.14
-23.75
-21.22
-18.76
-16.38
-13.89
-11.04
-7.79
-4.23
-0.67
2.54
5.06
6.73
7.5
7.53
7.07
6.37
5.68
5.16
4.91
4.99
5.32
5.87
6.51
7.13
7.64
7.99
8.19
8.32
8.45
8.71
9.18
9.97
11.11
12.46
13.76
14.6
14.68
13.95
12.73
11.64
11.32
12.24
14.55
18.12
22.72
28.15
34.17
40.42
46.15
50.32
51.67
49.32
43.04
33.44
21.8
9.58
-2.06
-12.55
-21.82
-30.01
-37.05
-42.62
-46.21
-47.47
-46.44
-43.58
-39.56
-35.01
-30.22
-25.23
-19.98
-14.53
-9.25
-4.61
-1.13
0.9
1.48
0.96
-0.17
-1.47
-2.62
-3.47
-3.93
-3.87
-3.08
-1.43
0.96
3.57
5.62
6.34
5.45
3.35
1.09
0.06
1.35
5.35
11.65
19.2
26.78
33.47
38.76
42.55
44.83
45.47
44.08
40.32
34.15
26.08
17.13
8.28
0.21
-6.86
-13.09
-18.51
-22.62
-24.6
-23.71
-19.76
-13.53
-6.46
0.03
5.14
8.97
12.3
15.88
19.88
23.64
25.82
24.93
19.77
9.74
-4.92
-23.38
-44.23
-65.8
-86.29
-104.09
-108.38000000000001
-108.38000000000001
-108.38000000000001
-108.38000000000001
-108.38000000000001
-108.38000000000001
-106.44
-94.16
-81.95
-70.75
-60.86
-52.01
-43.5
-34.67
-25.25
-15.5
-5.95
2.74
10.16
16.2
20.94
24.53
27.1
28.74
29.51
29.52
28.94
27.98
26.91
25.92
25.07
24.26
23.22
21.74
19.7
17.17
14.44
11.85
9.71
8.17
7.21
6.59
6.05
5.25
3.8
1.39
-2.15
-6.73
-11.89
-16.85
-20.75
-22.89
-22.92
-20.96
-17.45
-12.99
-8.19
-3.53
0.71
4.33
7.25
9.51
11.23
12.6
13.71
14.56
15.04
14.98
14.28
12.92
11.05
8.87
6.62
4.53
2.78
1.58
0.98
0.84
0.96
0.93
0.35
-1.01
-3.16
-5.79
-8.43
-10.51
-11.63
-11.67
-10.94
-10.14
-10.03
-11.14
-13.36
-15.96
-17.68
-17.36
-14.34
-8.78
-1.53
6.25
13.52
19.73
24.81
28.95
32.42
35.35
37.67
39.32
40.36
40.89
41.2
41.58
42.23
43.19
44.36
45.55
46.48
46.81
46.15
44.08
40.38
35.05
28.5
21.3
14.15
7.61
2.0
-2.58
-6.26
-9.13
-11.31
-12.8
-13.71
-14.23
-14.59
-15.18
-16.21
-17.8
-19.95
-22.65
-25.89
-29.73
-34.27
-39.56
-45.4
-51.37
-56.79
-60.81
-62.61
-61.59
-57.46
-50.44
-41.17
-30.67
-20.03
-10.37
-2.41
3.47
7.29
9.38
10.2
10.25
9.91
9.45
8.96
8.44
7.88
7.19
6.36
5.42
4.54
3.96
4.04
5.18
7.71
11.77
17.17
23.24
28.92
33.07
34.77
33.7
30.26
25.4
20.19
15.46
11.59
8.46
5.86
3.58
1.6
0.01
-1.19
-2.07
-2.89
-3.86
-5.21
-7.08
-9.58
-12.78
-16.61
-20.79
-24.69
-27.58
-28.72
-27.68
-24.43
-19.42
-13.38
-7.13
-1.34
3.58
7.46
10.34
12.33
13.54
14.16
14.39
14.55
14.97
15.91
17.38
19.0
20.2
20.28
18.96
16.35
13.11
9.99
7.61
6.27
5.82
5.99
6.47
7.18
8.16
9.39
10.66
11.64
11.94
11.32
9.82
7.69
5.26
2.83
0.57
-1.47
-3.28
-4.8
-5.98
-6.78
-7.38
-8.1
-9.38
-11.58
-14.78
-18.65
-22.47
-25.35
-26.43
-25.24
-21.81
-16.61
-10.49
-4.24
1.44
6.12
9.63
11.96
13.25
13.73
13.69
13.4
13.06
12.73
12.4
12.0
11.54
11.11
10.82
10.77
10.99
11.44
12.08
12.78
13.41
13.76
13.67
13.03
11.94
10.66
9.57
8.98
9.03
9.59
10.37
10.96
11.01
10.34
8.88
6.81
4.32
1.73
-0.65
-2.59
-3.99
-4.88
-5.42
-5.8
-6.1
-6.37
-6.57
-6.64
-6.62
-6.59
-6.78
-7.43
-8.76
-10.92
-13.82
-17.14
-20.22
-22.31
-22.66
-20.93
-17.19
-11.99
-6.17
-0.54
4.3
8.13
10.91
12.85
14.09
14.72
14.74
14.18
13.15
11.89
10.79
10.12
10.06
10.51
11.18
11.68
11.66
11.01
9.75
8.11
6.39
4.9
3.8
3.09
2.68
2.29
1.7
0.68
-0.85
-2.93
-5.47
-8.34
-11.39
-14.45
-17.47
-20.41
-23.25
-25.83
-27.86
-28.87
-28.46
-26.39
-22.76
-18.01
-12.7
-7.39
-2.5
1.75
5.27
8.05
10.11
11.51
12.26
12.5
12.35
11.91
11.28
10.52
9.64
8.65
7.53
6.28
4.89
3.34
1.61
-0.22
-2.05
-3.71
-5.07
-6.09
-6.92
-7.83
-9.09
-10.84
-13.09
-15.75
-18.73
-21.96
-25.34
-28.53
-30.98
-31.95
-30.87
-27.47
-22.07
-15.46
-8.64
-2.53
2.35
5.89
8.36
10.14
11.53
12.63
13.4
13.71
13.53
12.95
12.18
11.37
10.63
9.94
9.29
8.69
8.25
8.12
8.36
8.94
9.7
10.48
11.14
11.56
11.56
10.9
9.32
6.62
2.74
-2.21
-8.01
-14.39
-20.94
-27.04
-31.85
-34.46
-34.13
-30.66
-24.55
-16.82
-8.82
-1.69
3.89
7.75
10.22
11.82
13.07
14.31
15.68
17.11
18.41
19.35
19.74
19.45
18.43
16.71
14.4
11.75
9.1
6.84
5.27
4.56
4.67
5.28
6.04
6.6
6.81
6.74
6.49
6.18
5.67
4.72
3.04
0.45
-3.05
-7.26
-11.81
-16.25
-20.0
-22.5
-23.26
-22.03
-18.91
-14.32
-8.93
-3.44
1.62
6.04
9.72
12.72
15.07
16.85
18.08
18.83
19.15
19.03
18.53
17.66
16.64
15.69
15.03
14.76
14.79
14.94
14.99
14.88
14.68
14.55
14.56
14.6
14.45
13.85
12.68
11.0
9.08
7.29
5.92
5.15
4.88
4.92
4.9
4.56
3.69
2.24
0.21
-2.27
-4.98
-7.61
-9.58
-10.35
-9.4
-6.56
-2.08
3.34
8.93
14.11
18.64
22.64
26.24
29.28
31.32
31.68
29.94
26.2
21.04
15.26
9.6
4.36
-0.5
-5.14
-9.7
-14.02
-17.75
-20.47
-21.85
-21.71
-20.12
-17.35
-13.81
-9.92
-6.0
-2.07
2.09
6.83
12.33
18.25
23.66
27.25
27.75
24.37
17.1
6.72
-5.41
-17.86
-29.37
-39.2
-47.02
-52.78
-56.41
-57.67
-56.32
-52.18
-45.6
-37.29
-28.24
-19.3
-11.0
-3.39
3.69
10.35
16.4
21.39
24.76
26.21
25.79
23.88
21.04
17.85
14.74
12.02
9.86
8.32
7.31
6.57
5.75
4.47
2.52
0.03
-2.46
-4.22
-4.52
-2.91
0.49
5.13
10.2
15.0
19.14
22.56
25.39
27.8
29.82
31.44
32.63
33.4
33.84
34.03
34.02
33.81
33.3
32.16
29.61
24.53
15.65
2.21
-15.52
-36.0
-56.69
-74.88
-88.41
-96.39
-99.1
-97.62
-93.18
-86.76
-78.95
-70.17
-60.85
-51.52
-42.63
-34.45
-26.96
-19.84
-12.73
-5.32
2.54
10.8
19.25
27.51
35.08
41.23
45.14
46.09
43.71
38.27
30.52
21.49
12.11
2.92
-5.84
-14.13
-21.65
-27.88
-32.17
-34.16
-33.9
-31.98
-29.22
-26.32
-23.53
-20.62
-17.03
-12.17
-5.74
2.2
11.13
20.23
28.59
35.46
40.29
42.94
43.61
42.66
40.59
37.86
34.85
31.96
29.48
27.61
26.45
25.91
25.71
25.45
24.72
23.24
21.01
18.17
15.03
11.81
8.64
5.52
2.43
-0.69
-3.88
-7.13
-10.37
-13.42
-15.88
-17.27
-17.13
-15.22
-11.66
-7.02
-1.99
2.72
6.66
9.66
11.72
13.01
13.67
13.9
13.89
13.89
14.13
14.81
16.03
17.78
19.94
22.14
23.94
24.7
23.94
21.27
16.62
10.16
2.33
-6.29
-14.98
-22.95
-29.46
-33.87
-35.73
-35.01
-32.06
-27.63
-22.72
-18.37
-15.32
-13.82
-13.55
-13.73
-13.49
-12.11
-9.37
-5.49
-1.0
3.52
7.58
10.83
13.07
14.2
14.34
13.87
13.37
13.47
14.45
15.93
16.95
16.33
13.16
7.31
-0.47
-8.91
-16.6
-22.53
-26.27
-27.94
-27.97
-26.85
-24.89
-22.21
-18.73
-14.34
-9.2
-3.81
0.93
3.96
4.47
2.24
-2.34
-8.44
-15.09
-21.45
-26.82
-30.6
-32.24
-31.3
-27.62
-21.57
-13.97
-5.91
1.62
8.02
13.15
17.24
20.62
23.55
26.14
28.43
30.46
32.37
34.34
36.54
39.02
41.68
44.32
46.77
48.97
51.05
53.28
55.89
58.84
61.64
63.33
62.71
58.68
50.77
39.31
25.41
10.55
-3.85
-16.87
-28.06
-37.36
-44.86
-50.66
-54.78
-57.23
-58.09
-57.44
-55.44
-52.29
-48.3
-43.81
-39.21
-34.81
-30.74
-27.04
-23.67
-20.67
-18.04
-15.82
-13.88
-11.98
-9.93
-7.6
-5.1
-2.66
-0.55
1.09
2.39
3.55
4.81
6.2
7.55
8.55
8.86
8.35
7.1
5.37
3.4
1.38
-0.67
-2.66
-4.47
-5.74
-6.15
-5.57
-4.22
-2.69
-1.58
-1.3
-1.65
-1.96
-1.28
1.24
5.94
12.62
20.64
29.12
37.11
43.62
47.65
48.22
44.64
36.74
25.16
11.21
-3.3
-16.63
-27.49
-35.33
-40.29
-42.9
-43.88
-43.77
-42.9
-41.41
-39.3
-36.53
-33.11
-29.2
-25.03
-20.93
-17.25
-14.24
-12.07
-10.75
-10.19
-10.19
-10.61
-11.23
-11.98
-12.86
-13.94
-15.33
-17.01
-18.79
-20.25
-20.86
-20.09
-17.71
-13.79
-8.78
-3.3
1.97
6.54
10.1
12.64
14.25
15.14
15.48
15.5
15.33
15.11
14.91
14.69
14.37
13.95
13.45
12.95
12.67
12.7
13.03
13.55
14.04
14.25
13.94
12.95
11.19
8.77
5.9
2.95
0.26
-1.99
-3.77
-5.3
-6.78
-8.39
-10.15
-11.94
-13.56
-14.79
-15.55
-15.82
-15.78
-15.67
-15.75
-16.08
-16.46
-16.42
-15.34
-12.77
-8.61
-3.16
2.95
9.02
14.53
19.2
23.09
26.44
29.47
32.31
34.87
37.01
38.57
39.5
39.96
40.17
40.36
40.6
40.86
40.96
40.8
40.29
39.37
37.88
35.47
31.7
26.16
18.66
9.36
-1.26
-12.6
-23.99
-34.7
-44.08
-51.35
-55.91
-57.33
-55.71
-51.67
-46.27
-40.68
-35.85
-32.33
-30.1
-28.78
-27.82
-26.71
-25.15
-23.07
-20.62
-17.93
-15.02
-11.74
-7.87
-3.07
2.87
9.99
18.02
26.45
34.54
41.45
46.55
49.58
50.86
51.18
51.56
52.86
55.51
59.48
64.15
68.37
70.23
67.29
57.1
38.24
11.3
-20.86
-53.79
-82.96
-105.27
-108.38000000000001
-108.38000000000001
-108.38000000000001
-108.38000000000001
-108.38000000000001
-108.38000000000001
-108.38000000000001
-98.49
-84.41
-69.97
-56.08
-43.09
-31.02
-19.96
-10.28
-2.63
2.36
4.4
3.7
0.98
-2.81
-6.82
-10.41
-13.22
-15.03
-15.64
-14.86
-12.62
-9.08
-4.65
0.07
4.59
8.7
12.46
16.15
19.9
23.64
27.03
29.7
31.35
31.99
31.81
31.02
29.69
27.83
25.42
22.58
19.67
17.21
15.59
14.92
14.99
15.39
15.59
15.33
14.57
13.48
12.29
11.16
10.14
9.16
8.15
6.99
5.7
4.33
2.9
1.42
-0.22
-2.18
-4.63
-7.53
-10.68
-13.66
-15.93
-16.96
-16.48
-14.57
-11.52
-7.86
-4.04
-0.4
2.95
5.95
8.56
10.77
12.54
13.97
15.16
16.28
17.4
18.47
19.32
19.72
19.49
18.52
16.83
14.48
11.66
8.64
5.76
3.41
1.76
0.79
0.16
-0.52
-1.63
-3.28
-5.28
-7.23
-8.72
-9.51
-9.57
-9.14
-8.56
-8.14
-8.11
-8.6
-9.71
-11.47
-13.87
-16.7
-19.43
-21.39
-21.81
-20.3
-17.0
-12.56
-7.85
-3.65
-0.26
2.41
4.71
7.0
9.42
11.85
14.05
15.79
16.97
17.62
17.88
17.86
17.7
17.42
17.07
16.69
16.37
16.17
16.11
16.07
15.84
15.27
14.22
12.74
11.01
9.19
7.45
5.89
4.58
3.6
3.01
2.84
3.0
3.36
3.66
3.69
3.3
2.41
0.98
-0.87
-2.91
-4.73
-5.73
-5.38
-3.39
0.1
4.53
9.09
13.15
16.43
19.14
21.73
24.57
27.76
31.09
34.17
36.65
38.32
39.16
39.2
38.49
37.05
34.92
32.2
29.03
25.56
21.85
18.0
14.12
10.41
7.12
4.49
2.56
1.07
-0.41
-2.42
-5.27
-8.97
-13.1
-17.07
-20.31
-22.48
-23.57
-23.83
-23.72
-23.77
-24.48
-26.21
-29.07
-32.91
-37.33
-41.65
-45.17
-47.29
-47.6
-46.05
-42.83
-38.43
-33.56
-28.9
-25.01
-22.13
-20.1
-18.47
-16.73
-14.65
-12.27
-10.0
-8.31
-7.55
-7.69
-8.42
-9.31
-9.87
-9.74
-8.52
-5.8
-1.14
5.64
14.29
24.01
33.53
41.52
46.92
49.3
48.81
46.0
41.5
35.83
29.36
22.32
14.98
7.66
0.8
-5.25
-10.23
-14.04
-16.85
-18.94
-20.68
-22.32
-23.88
-24.98
-24.98
-23.16
-19.0
-12.59
-4.51
4.08
12.1
18.73
23.69
27.23
29.87
32.2
34.6
37.21
39.89
42.44
44.5
45.77
45.87
44.29
40.32
33.1
21.91
6.53
-12.45
-33.49
-54.42
-72.84
-86.88
-95.42
-98.4
-96.64
-91.45
-84.31
-76.35
-68.2
-59.88
-51.18
-41.86
-32.12
-22.59
-14.09
-7.22
-2.01
2.05
5.75
9.56
13.51
17.07
19.59
20.65
20.24
18.71
16.53
14.12
11.65
9.11
6.45
3.48
0.19
-3.44
-7.33
-11.35
-15.35
-19.22
-23.0
-26.78
-30.62
-34.27
-37.17
-38.52
-37.55
-33.87
-27.72
-19.8
-11.11
-2.55
5.24
11.91
17.27
21.14
23.3
23.5
21.53
17.14
10.07
-0.01
-13.4
-30.03
-49.14
-69.25
-88.26
-103.9
-108.38000000000001
-108.38000000000001
-108.38000000000001
-106.93
-93.41
-76.29
-56.84
-36.4
-16.31
2.0
17.18
28.37
35.43
39.12
40.74
41.62
42.58
43.65
44.37
44.15
42.87
40.9
38.94
37.61
37.08
37.16
37.43
37.52
37.29
36.77
36.06
35.1
33.71
31.61
28.53
24.2
18.52
11.55
3.7
-4.29
-11.48
-16.83
-19.65
-19.57
-16.84
-12.14
-6.28
-0.14
5.63
10.6
14.63
17.73
20.07
21.85
23.24
24.37
25.28
26.01
26.58
27.06
27.47
27.73
27.78
27.52
26.93
26.03
24.95
23.74
22.38
20.82
18.89
16.5
13.59
10.25
6.62
2.91
-0.63
-3.84
-6.68
-9.32
-12.08
-15.41
-19.57
-24.64
-30.35
-36.13
-41.33
-45.23
-47.32
-47.23
-44.94
-40.71
-35.06
-28.71
-22.26
-16.15
-10.43
-4.95
0.55
6.23
12.12
18.08
23.87
29.29
34.13
38.21
41.31
43.12
43.39
42.0
39.14
35.28
31.2
27.65
25.18
23.92
23.48
23.16
22.13
19.8
15.9
10.57
4.26
-2.48
-9.09
-15.2
-20.5
-24.83
-28.04
-30.09
-31.03
-31.2
-31.12
-31.34
-32.26
-33.83
-35.55
-36.56
-36.0
-33.36
-28.67
-22.41
-15.24
-7.74
-0.2
7.3
14.75
22.03
28.72
34.27
38.11
40.03
40.18
39.16
37.77
36.73
36.57
37.41
39.11
41.39
43.92
46.45
48.71
50.39
51.02
50.28
47.94
44.1
39.15
33.62
28.03
22.79
18.2
14.24
10.92
8.07
5.65
3.68
2.27
1.55
1.54
2.1
2.88
3.48
3.59
3.14
2.23
0.96
-0.63
-2.66
-5.16
-7.95
-10.4
-11.69
-10.95
-7.75
-2.21
5.11
13.44
22.21
31.06
39.75
47.74
54.15
57.91
58.13
54.64
48.09
39.85
31.4
23.96
18.18
14.13
11.55
10.05
9.32
9.15
9.51
10.47
12.14
14.63
17.79
21.21
24.13
25.7
25.13
22.1
16.71
9.5
1.3
-7.03
-14.65
-20.93
-25.5
-28.28
-29.5
-29.59
-29.08
-28.41
-27.91
-27.63
-27.52
-27.43
-27.29
-27.18
-27.38
-28.37
-30.6
-34.48
-39.92
-46.41
-52.97
-58.32
-61.17
-60.47
-55.77
-47.38
-36.6
-25.3
-15.39
-8.1
-3.39
-0.24
2.75
6.53
11.08
15.5
18.68
19.96
19.57
18.39
17.35
16.96
17.19
17.69
18.25
18.95
20.11
21.95
24.47
27.18
29.44
30.65
30.53
29.3
27.58
26.16
25.62
26.19
27.56
29.11
30.16
30.31
29.64
28.67
28.11
28.48
29.83
31.64
33.14
33.55
32.48
30.1
27.04
24.35
23.26
24.88
29.71
37.14
45.23
50.97
51.29
44.19
29.75
10.28
-10.56
-29.08
-42.79
-50.94
-54.15
-53.56
-50.1
-44.21
-36.06
-26.09
-15.16
-4.56
4.38
10.69
14.0
14.51
12.72
9.33
4.94
0.05
-4.94
-9.7
-13.94
-17.41
-19.89
-21.3
-21.63
-21.13
-20.2
-19.45
-19.48
-20.77
-23.45
-27.22
-31.49
-35.5
-38.66
-40.59
-41.16
-40.41
-38.48
-35.64
-32.17
-28.45
-24.81
-21.53
-18.7
-16.23
-14.02
-12.01
-10.23
-8.83
-8.01
-7.82
-8.28
-9.17
-10.24
-11.22
-11.94
-12.37
-12.59
-12.73
-12.83
-12.84
-12.61
-11.96
-10.89
-9.54
-8.21
-7.17
-6.55
-6.29
-6.17
-6.03
-5.86
-5.86
-6.28
-7.35
-9.11
-11.44
-14.07
-16.69
-19.01
-20.73
-21.59
-21.39
-20.05
-17.72
-14.72
-11.53
-8.51
-5.93
-3.79
-1.98
-0.33
1.2
2.52
3.47
3.88
3.66
2.87
1.7
0.42
-0.72
-1.57
-2.14
-2.46
-2.61
-2.53
-2.13
-1.34
-0.34
0.41
0.27
-1.35
-4.69
-9.52
-15.19
-20.99
-26.42
-31.34
-35.89
-40.3
-44.67
-48.96
-53.13
-57.18
-61.27
-65.54
-69.93
-74.09
-77.45
-79.46
-79.93
-79.14
-77.82
-76.85
-76.89
-78.14
-80.31
-82.79
-85.02
-86.74
-88.16
-89.96
-93.12
-98.67
-107.39
-108.38000000000001
-108.38000000000001
-108.38000000000001
-108.38000000000001
-108.38000000000001
-108.38000000000001
-108.38000000000001
-108.38000000000001
-108.38000000000001
-108.38000000000001
-108.38000000000001
-108.38000000000001
-108.38000000000001
-101.52
-58.79
-12.44
35.45
82.55
108.10000000000001
108.10000000000001
108.10000000000001
108.10000000000001
108.10000000000001
108.10000000000001
108.10000000000001
108.10000000000001
108.10000000000001
108.10000000000001
108.10000000000001
108.10000000000001
108.10000000000001
108.10000000000001
108.10000000000001
108.10000000000001
108.10000000000001
108.10000000000001
103.64
94.55
87.92
83.69
81.38
80.35
79.88
79.42
78.56
77.09
74.91
72.05
68.62
64.78
60.75
56.76
53.04
49.79
47.17
45.1
43.35
41.55
39.31
36.43
32.9
29.05
25.28
21.97
19.33
17.37
15.97
14.95
14.2
13.62
13.15
12.68
12.07
11.12
9.66
7.63
5.11
2.38
-0.25
-2.55
-4.44
-5.99
-7.38
-8.74
-10.11
-11.57
-13.21
-15.24
-17.8
-20.83
-23.98
-26.62
-28.06
-27.81
-25.83
-22.5
-18.51
-14.56
-11.14
-8.43
-6.22
-4.28
-2.37
-0.47
1.26
2.61
3.5
4.05
4.52
5.2
6.16
7.24
8.06
8.22
7.56
6.16
4.38
2.69
1.4
0.56
0.0
-0.58
-1.47
-2.79
-4.47
-6.27
-7.96
-9.38
-10.45
-11.2
-11.67
-12.02
-12.59
-13.84
-16.3
-20.22
-25.31
-30.7
-35.09
-37.16
-36.19
-32.31
-26.44
-19.98
-14.17
-9.76
-6.85
-5.07
-3.91
-3.02
-2.26
-1.66
-1.27
-1.03
-0.79
-0.37
0.33
1.31
2.46
3.68
4.88
6.03
7.19
8.46
9.92
11.63
13.55
15.52
17.29
18.59
19.08
18.6
17.06
14.5
11.13
7.21
3.11
-0.89
-4.52
-7.83
-11.0
-14.44
-18.53
-23.4
-28.77
-33.91
-37.84
-39.61
-38.62
-34.74
-28.39
-20.32
-11.45
-2.74
5.0
11.14
15.4
17.77
18.53
18.18
17.32
16.5
16.17
16.58
17.69
19.15
20.45
21.0
20.53
19.07
17.18
15.51
14.64
14.71
15.48
16.42
17.09
17.3
17.12
16.7
16.16
15.38
14.11
12.12
9.39
6.1
2.67
-0.48
-3.01
-4.82
-6.05
-7.05
-8.28
-10.11
-12.75
-16.02
-19.37
-22.0
-23.09
-22.05
-18.74
-13.44
-6.82
0.34
7.33
13.59
18.81
22.84
25.66
27.34
28.02
27.89
27.16
26.04
24.63
22.95
20.91
18.47
15.68
12.73
9.97
7.69
6.06
5.11
4.63
4.43
4.35
4.39
4.68
5.33
6.25
7.13
7.55
7.04
5.39
2.71
-0.64
-4.09
-7.09
-9.33
-10.72
-11.37
-11.51
-11.3
-10.89
-10.4
-9.98
-9.9
-10.46
-11.94
-14.37
-17.57
-20.94
-23.74
-25.19
-24.76
-22.38
-18.4
-13.45
-8.22
-3.32
0.95
4.43
7.12
9.08
10.38
11.19
11.69
12.07
12.37
12.56
12.48
11.97
11.05
9.89
8.83
8.28
8.54
9.68
11.52
13.61
15.45
16.62
16.89
16.34
15.2
13.85
12.67
11.85
11.37
10.91
9.97
7.99
4.6
-0.31
-6.35
-12.86
-19.03
-24.16
-27.91
-30.31
-31.76
-32.81
-33.93
-35.35
-36.89
-38.1
-38.47
-37.63
-35.53
-32.4
-28.6
-24.52
-20.37
-16.17
-11.89
-7.52
-3.16
0.96
4.53
7.33
9.26
10.39
10.94
11.15
11.25
11.29
11.27
11.16
10.98
10.8
10.66
10.5
10.13
9.39
8.22
6.78
5.38
4.38
4.01
4.31
5.15
6.32
7.61
8.91
10.03
10.78
10.92
10.25
8.69
6.46
3.85
1.19
-1.36
-3.91
-6.68
-9.84
-13.21
-16.32
-18.38
-18.71
-16.92
-13.09
-7.75
-1.64
4.4
9.76
13.99
16.95
18.69
19.48
19.66
19.57
19.42
19.28
19.05
18.58
17.83
16.86
15.9
15.27
15.23
15.95
17.37
19.3
21.47
23.57
25.42
26.84
27.86
28.46
28.72
28.66
28.28
27.55
26.51
25.3
24.13
23.3
22.98
23.17
23.59
23.8
23.32
21.98
19.98
17.84
16.35
16.34
18.41
22.77
28.84
35.29
40.2
41.76
38.88
31.76
21.81
11.08
1.58
-5.48
-9.64
-11.14
-10.29
-7.31
-2.38
4.11
11.37
18.19
23.31
25.86
25.58
22.9
18.67
13.87
9.15
4.79
0.68
-3.48
-7.92
-12.64
-17.43
-21.95
-25.91
-29.2
-31.88
-34.07
-35.95
-37.65
-39.29
-41.04
-42.94
-44.97
-46.93
-48.46
-49.1
-48.52
-46.62
-43.46
-39.34
-34.52
-29.25
-23.71
-18.17
-13.04
-8.85
-6.07
-4.92
-5.21
-6.37
-7.72
-8.69
-9.06
-8.94
-8.66
-8.52
-8.63
-8.91
-9.22
-9.42
-9.56
-9.78
-10.28
-11.13
-12.24
-13.38
-14.33
-14.98
-15.36
-15.6
-15.8
-15.91
-15.87
-15.62
-15.19
-14.72
-14.28
-13.79
-12.96
-11.45
-9.04
-5.76
-1.88
2.26
6.39
10.29
13.79
16.58
18.24
18.36
16.78
13.7
9.76
5.82
2.6
0.43
-0.87
-1.89
-3.32
-5.6
-8.82
-12.62
-16.45
-19.74
-22.13
-23.5
-23.99
-23.82
-23.22
-22.3
-21.0
-19.25
-16.98
-14.33
-11.61
-9.31
-8.02
-8.19
-10.07
-13.55
-18.16
-23.13
-27.58
-30.68
-31.89
-31.06
-28.46
-24.65
-20.34
-16.2
-12.79
-10.45
-9.33
-9.32
-10.01
-10.91
-11.55
-11.66
-11.2
-10.3
-8.98
-7.19
-4.76
-1.58
2.27
6.4
10.23
13.2
15.0
15.7
15.62
15.04
14.21
13.11
11.63
9.7
7.33
4.7
2.1
-0.16
-1.86
-2.77
-2.84
-2.03
-0.48
1.53
3.62
5.33
6.37
6.56
6.05
5.15
4.37
4.24
5.23
7.66
11.73
17.42
24.57
32.8
41.48
49.91
57.54
64.16
70.08
76.02
82.79
90.91
100.21
108.10000000000001
108.10000000000001
108.10000000000001
108.10000000000001
100.07
77.53
48.56
16.76
-13.86
-40.07
-60.16
-73.91
-82.15
-85.94
-86.23
-83.71
-79.0
-72.84
-66.1
-59.54
-53.62
-48.5
-43.98
-39.75
-35.53
-31.27
-27.15
-23.59
-21.11
-20.14
-20.89
-23.17
-26.57
-30.53
-34.49
-37.96
-40.46
-41.61
-41.04
-38.59
-34.32
-28.58
-21.97
-15.17
-8.74
-3.05
1.79
5.85
9.33
12.4
15.08
17.24
18.71
19.28
18.97
17.96
16.57
15.1
13.78
12.67
11.73
10.85
9.94
8.96
7.91
6.83
5.78
4.89
4.26
3.91
3.71
3.39
2.7
1.46
-0.36
-2.63
-5.2
-7.91
-10.68
-13.44
-16.14
-18.73
-21.21
-23.64
-26.05
-28.44
-30.55
-31.95
-32.16
-30.83
-27.84
-23.39
-17.89
-11.84
-5.79
-0.13
4.82
8.84
11.86
13.93
15.29
16.2
16.99
17.85
18.83
19.79
20.56
20.99
21.04
20.84
20.53
20.33
20.25
20.25
20.15
19.77
18.94
17.59
15.72
13.43
10.89
8.22
5.58
3.06
0.68
-1.58
-3.77
-5.93
-8.1
-10.29
-12.47
-14.66
-16.91
-19.43
-22.39
-25.98
-30.03
-34.08
-37.32
-38.82
-37.92
-34.42
-28.68
-21.42
-13.53
-5.7
1.56
8.03
13.58
18.1
21.56
23.93
25.38
26.08
26.25
26.03
25.5
24.62
23.35
21.73
19.89
18.08
16.54
15.45
14.79
14.4
13.99
13.26
12.12
10.55
8.74
6.89
5.15
3.56
2.0
0.32
-1.59
-3.81
-6.31
-8.91
-11.42
-13.62
-15.46
-17.07
-18.76
-20.96
-24.04
-28.19
-33.24
-38.66
-43.65
-47.29
-48.79
-47.63
-43.71
-37.31
-29.02
-19.6
-9.79
-0.19
8.79
16.92
24.12
30.38
35.73
40.26
44.04
47.13
49.61
51.52
52.95
54.01
54.76
55.34
55.79
56.12
56.26
56.21
56.02
55.86
55.87
56.17
56.73
57.47
58.29
59.06
59.59
59.66
59.01
57.6
55.69
53.88
52.87
53.06
54.24
55.44
55.3
52.46
46.06
36.03
22.98
8.14
-7.03
-20.95
-32.23
-39.86
-43.44
-43.22
-40.04
-35.04
-29.31
-23.66
-18.52
-14.02
-10.13
-6.83
-4.18
-2.28
-1.3
-1.29
-2.1
-3.41
-4.77
-5.75
-6.04
-5.56
-4.46
-3.07
-1.78
-0.99
-1.15
-2.59
-5.46
-9.63
-14.68
-19.89
-24.54
-28.07
-30.25
-31.2
-31.25
-30.79
-30.12
-29.39
-28.62
-27.85
-27.22
-27.06
-27.8
-29.83
-33.3
-38.02
-43.43
-48.64
-52.78
-55.17
-55.48
-53.83
-50.56
-46.09
-40.78
-34.84
-28.45
-21.83
-15.37
-9.41
-4.33
-0.19
3.06
5.68
7.9
9.88
11.69
13.34
14.88
16.35
17.86
19.57
21.6
24.0
26.56
28.88
30.4
30.61
29.34
26.87
23.85
21.08
19.17
18.31
18.26
18.45
18.22
17.01
14.4
10.16
4.2
-3.22
-11.6
-20.12
-27.79
-33.69
-37.2
-38.16
-36.82
-33.74
-29.52
-24.63
-19.26
-13.38
-6.98
-0.15
6.67
12.88
17.84
21.05
22.29
21.62
19.43
16.19
12.53
8.98
5.92
3.48
1.54
-0.13
-1.79
-3.55
-5.37
-7.06
-8.46
-9.47
-10.1
-10.36
-10.3
-9.93
-9.32
-8.55
-7.78
-7.13
-6.66
-6.38
-6.34
-6.55
-7.09
-8.06
-9.56
-11.66
-14.4
-17.73
-21.43
-25.11
-28.23
-30.16
-30.38
-28.64
-25.07
-20.09
-14.32
-8.36
-2.71
2.37
6.84
10.82
14.45
17.85
20.99
23.67
25.65
26.73
26.88
26.24
25.17
23.99
22.97
22.24
21.71
21.32
20.95
20.53
20.04
19.49
18.9
18.29
17.75
17.3
16.99
16.62
15.9
14.52
12.21
8.92
4.82
0.27
-4.35
-8.71
-12.69
-16.32
-19.83
-23.5
-27.59
-32.17
-37.0
-41.64
-45.39
-47.67
-48.09
-46.6
-43.48
-39.18
-34.21
-29.05
-24.06
-19.53
-15.57
-12.22
-9.37
-6.85
-4.45
-2.04
0.43
2.89
5.16
7.03
8.32
8.97
9.08
8.88
8.6
8.45
8.47
8.56
8.62
8.65
8.79
9.16
9.73
10.19
10.12
9.14
7.18
4.48
1.43
-1.61
-4.48
-7.2
-9.8
-12.16
-14.03
-15.18
-15.55
-15.39
-15.0
-14.58
-13.93
-12.5
-9.62
-4.81
1.94
10.2
19.14
27.87
35.61
41.84
46.17
48.18
47.3
42.96
34.8
23.02
8.64
-6.79
-21.38
-33.51
-42.24
-47.38
-49.34
-48.75
-46.27
-42.31
-37.22
-31.27
-24.8
-18.21
-11.9
-6.27
-1.57
2.05
4.58
6.18
6.98
7.17
6.76
5.74
4.06
1.74
-1.12
-4.42
-8.0
-11.77
-15.54
-19.08
-21.92
-23.61
-23.75
-22.19
-19.14
-14.97
-10.17
-5.12
-0.13
4.53
8.54
11.51
13.09
13.1
11.74
9.5
7.12
5.2
4.1
3.81
4.08
4.61
5.24
5.97
6.86
7.93
9.08
10.07
10.75
11.08
11.2
11.28
11.43
11.56
11.46
10.87
9.6
7.69
5.29
2.66
-0.02
-2.65
-5.23
-7.79
-10.32
-12.83
-15.32
-17.94
-20.89
-24.44
-28.62
-33.13
-37.33
-40.3
-41.22
-39.61
-35.53
-29.48
-22.26
-14.6
-6.96
0.42
7.53
14.31
20.61
26.19
30.88
34.62
37.53
39.79
41.48
42.57
42.91
42.45
41.32
39.83
38.3
36.8
35.07
32.63
29.1
24.38
18.77
12.83
7.04
1.67
-3.27
-7.79
-11.79
-14.91
-16.83
-17.37
-16.73
-15.53
-14.52
-14.41
-15.53
-17.96
-21.46
-25.68
-30.28
-34.79
-38.67
-41.23
-41.81
-39.97
-35.75
-29.65
-22.55
-15.47
-9.14
-3.87
0.48
4.3
7.93
11.49
14.84
17.63
19.54
20.5
20.68
20.46
20.16
19.92
19.65
19.11
18.1
16.55
14.63
12.53
10.4
8.3
6.1
3.68
0.93
-2.15
-5.42
-8.67
-11.7
-14.33
-16.44
-18.02
-19.15
-20.02
-20.91
-22.14
-23.99
-26.54
-29.6
-32.7
-35.13
-36.18
-35.34
-32.45
-27.74
-21.7
-14.93
-7.94
-1.13
5.17
10.72
15.33
18.87
21.37
23.07
24.27
25.2
25.99
26.52
26.65
26.29
25.51
24.62
23.98
23.76
23.82
23.78
23.1
21.37
18.45
14.55
10.08
5.52
1.25
-2.56
-5.93
-9.15
-12.59
-16.66
-21.61
-27.27
-33.0
-37.73
-40.25
-39.57
-35.34
-28.01
-18.7
-8.82
0.44
8.34
14.77
19.99
24.33
28.01
30.97
33.11
34.29
34.6
34.14
33.07
31.43
29.16
26.29
22.91
19.28
15.7
12.43
9.55
6.95
4.44
1.77
-1.19
-4.51
-8.08
-11.77
-15.4
-18.87
-22.25
-25.8
-29.77
-34.21
-38.81
-42.76
-45.11
-44.96
-41.86
-35.95
-27.83
-18.4
-8.41
1.53
11.1
20.11
28.31
35.44
41.21
45.44
48.07
49.16
48.86
47.38
44.87
41.57
37.83
34.09
30.89
28.68
27.67
27.75
28.59
29.67
30.54
30.98
30.96
30.62
30.02
29.1
27.59
25.1
21.22
15.58
8.09
-1.01
-11.07
-20.95
-29.22
-34.49
-35.92
-33.46
-28.03
-21.21
-14.73
-9.89
-7.21
-6.45
-6.78
-7.23
-7.02
-5.89
-3.95
-1.66
0.54
2.36
3.68
4.57
5.13
5.44
5.55
5.59
5.8
6.47
7.91
10.12
12.81
15.35
16.97
16.96
14.99
11.2
6.19
0.85
-3.95
-7.53
-9.68
-10.61
-10.94
-11.53
-13.25
-16.79
-22.29
-29.28
-36.66
-43.01
-46.97
-47.66
-44.98
-39.47
-32.14
-23.98
-15.82
-8.14
-1.18
4.92
10.01
13.9
16.44
17.46
17.01
15.28
12.71
9.79
7.03
4.76
3.07
1.91
1.13
0.72
0.76
1.28
2.29
3.54
4.62
5.16
4.95
4.04
2.7
1.29
0.02
-1.07
-2.21
-3.7
-5.81
-8.72
-12.35
-16.44
-20.48
-23.85
-25.77
-25.54
-22.69
-17.19
-9.53
-0.67
8.29
16.58
23.79
30.09
35.69
40.62
44.5
46.65
46.46
43.8
39.15
33.4
27.65
22.65
18.81
16.19
14.63
13.99
14.07
14.68
15.52
16.31
16.85
17.04
17.04
16.96
16.93
16.86
16.66
16.19
15.46
14.66
14.01
13.67
13.56
13.45
13.05
12.13
10.53
8.1
4.63
-0.07
-5.94
-12.49
-18.76
-23.55
-25.85
-25.21
-21.9
-16.81
-11.1
-5.74
-1.32
2.08
4.7
6.86
8.82
10.61
12.13
13.13
13.42
12.89
11.55
9.47
6.77
3.64
0.34
-2.75
-5.17
-6.45
-6.26
-4.62
-1.96
0.92
3.15
3.98
3.17
0.99
-1.91
-4.79
-7.14
-8.82
-10.0
-11.03
-12.33
-14.23
-16.96
-20.55
-24.7
-28.87
-32.24
-34.01
-33.52
-30.55
-25.34
-18.42
-10.58
-2.55
5.01
11.64
17.09
21.37
24.73
27.61
30.44
33.59
37.21
41.24
45.47
49.6
53.39
56.75
59.78
62.78
66.13
70.32
75.61
81.93
88.48
93.48
94.32
88.09
72.61
47.39
14.08
-23.78
-61.92
-96.45
-108.38000000000001
-108.38000000000001
-108.38000000000001
-108.38000000000001
-108.38000000000001
-108.38000000000001
-108.38000000000001
-108.38000000000001
-108.38000000000001
-100.41
-83.9
-68.9
-55.27
-42.61
-30.67
-19.55
-9.69
-1.67
4.02
7.27
8.22
7.32
5.11
2.15
-1.06
-4.13
-6.74
-8.78
-10.27
-11.32
-12.12
-12.76
-13.29
-13.68
-13.96
-14.19
-14.55
-15.16
-16.06
-17.18
-18.39
-19.68
-21.11
-22.82
-24.79
-26.76
-28.15
-28.23
-26.47
-22.69
-17.24
-10.84
-4.33
1.64
6.75
10.99
14.51
17.42
19.78
21.59
22.93
23.96
24.84
25.69
26.44
27.01
27.26
27.18
26.83
26.27
25.48
24.26
22.39
19.65
16.0
11.58
6.69
1.71
-2.98
-7.05
-10.35
-12.96
-15.21
-17.57
-20.44
-23.97
-27.81
-31.25
-33.38
-33.43
-31.03
-26.34
-19.96
-12.59
-4.94
2.52
9.42
15.52
20.56
24.37
26.91
28.34
28.99
29.18
29.16
29.02
28.75
28.29
27.65
26.97
26.34
25.86
25.52
25.23
24.91
24.44
23.71
22.54
20.72
18.05
14.5
10.16
5.39
0.61
-3.81
-7.74
-11.27
-14.73
-18.54
-22.92
-27.76
-32.54
-36.38
-38.36
-37.8
-34.53
-28.92
-21.76
-13.92
-6.12
1.21
7.9
13.89
19.18
23.73
27.59
30.81
33.52
35.81
37.6
38.75
38.93
37.94
35.69
32.41
28.61
25.0
22.18
20.44
19.66
19.31
18.73
17.37
15.02
11.88
8.39
5.13
2.65
1.29
1.04
1.49
1.67
0.29
-3.78
-11.08
-21.05
-32.02
-41.77
-48.28
-50.47
-48.45
-43.34
-36.52
-29.24
-22.16
-15.49
-9.29
-3.73
0.86
4.06
5.52
5.2
3.35
0.47
-2.84
-6.11
-9.05
-11.57
-13.64
-15.12
-15.72
-15.03
-12.74
-8.89
-4.03
0.95
4.99
7.33
7.65
6.17
3.41
-0.05
-3.68
-7.25
-10.62
-13.82
-16.86
-19.66
-22.0
-23.53
-23.84
-22.53
-19.36
-14.39
-7.91
-0.42
7.5
15.34
22.72
29.36
35.11
39.85
43.54
46.17
47.87
48.82
49.21
49.28
49.1
48.63
47.69
46.02
43.45
39.93
35.65
30.89
26.08
21.57
17.64
14.53
12.34
11.16
10.88
11.3
12.02
12.57
12.49
11.44
9.26
5.9
1.44
-3.89
-9.63
-15.08
-19.3
-21.31
-20.34
-16.07
-8.8
0.79
11.63
22.68
32.91
41.35
47.14
49.56
48.28
43.53
36.15
27.49
19.05
12.13
7.45
5.12
4.69
5.46
6.66
7.73
8.38
8.55
8.43
8.11
7.48
6.06
3.21
-1.56
-8.31
-16.43
-24.79
-32.05
-37.15
-39.54
-39.3
-36.76
-32.3
-26.17
-18.62
-10.17
-1.76
5.25
9.43
9.62
5.44
-2.71
-13.69
-25.9
-37.9
-48.64
-57.66
-64.95
-70.64
-74.7
-76.9
-76.81
-73.97
-68.21
-59.59
-48.31
-34.61
-18.99
-2.49
13.24
26.12
34.49
37.78
37.03
34.34
32.06
31.68
33.16
35.18
35.85
33.71
28.29
20.29
11.07
2.11
-5.45
-11.0
-14.4
-15.92
-15.92
-14.79
-12.76
-10.18
-7.43
-5.06
-3.71
-3.85
-5.73
-9.14
-13.46
-17.83
-21.3
-23.15
-22.97
-20.78
-16.95
-12.11
-7.07
-2.69
0.3
1.53
1.1
-0.39
-2.11
-3.22
-3.29
-2.36
-0.89
0.57
1.73
2.54
3.23
4.04
5.12
6.57
8.34
10.29
12.16
13.6
14.24
13.77
12.07
9.26
5.78
2.22
-0.71
-2.4
-2.5
-1.07
1.39
4.04
5.96
6.63
6.03
4.82
3.94
4.19
5.98
9.1
12.99
16.9
20.23
22.62
23.97
24.45
24.23
23.57
22.65
21.6
20.4
18.95
17.16
15.05
12.87
11.01
9.96
10.01
11.18
13.18
15.48
17.62
19.23
20.25
20.79
21.08
21.32
21.62
22.0
22.32
22.41
22.0
20.85
18.71
15.63
11.96
8.38
5.76
4.73
5.53
7.77
10.65
13.3
15.1
15.88
15.83
15.3
14.53
13.58
12.33
10.63
8.48
6.04
3.7
1.94
1.29
1.97
3.73
5.69
6.43
4.43
-1.61
-12.25
-27.22
-45.38
-64.96
-83.82
-99.92
-108.38000000000001
-108.38000000000001
-108.38000000000001
-108.38000000000001
-108.38000000000001
-108.38000000000001
-108.38000000000001
-108.38000000000001
-108.38000000000001
-108.38000000000001
-108.38000000000001
-108.38000000000001
-108.38000000000001
-91.77
-72.65
-54.67
-39.0
-25.97
-15.37
-6.72
0.43
6.42
11.49
15.89
19.86
23.57
27.05
30.06
32.33
33.62
33.87
33.29
32.21
30.89
29.35
27.39
24.66
20.92
16.25
10.98
5.68
0.86
-3.12
-6.1
-8.09
-9.08
-9.04
-7.91
-5.91
-3.37
-0.86
1.15
2.35
2.72
2.42
1.65
0.67
-0.34
-0.98
-0.8
0.65
3.58
7.78
12.62
17.25
20.98
23.38
24.41
24.27
23.31
21.88
20.27
18.72
17.38
16.32
15.45
14.61
13.55
12.15
10.43
8.61
7.01
5.91
5.47
5.57
5.87
5.91
5.25
3.73
1.54
-0.86
-2.91
-4.21
-4.67
-4.56
-4.33
-4.5
-5.4
-7.2
-9.87
-13.2
-16.84
-20.25
-22.76
-23.68
-22.63
-19.54
-14.82
-9.25
-3.64
1.31
5.25
8.06
9.88
10.87
11.25
11.25
11.12
11.2
11.78
12.92
14.4
15.7
16.23
15.6
13.88
11.52
9.28
7.73
7.11
7.18
7.37
7.1
5.89
3.63
0.55
-2.91
-6.28
-9.17
-11.39
-13.01
-14.23
-15.34
-16.6
-18.18
-20.17
-22.48
-24.9
-27.02
-28.34
-28.36
-26.71
-23.3
-18.37
-12.37
-5.92
0.44
6.32
11.58
16.26
20.49
24.38
27.88
30.77
32.79
33.67
33.25
31.6
28.95
25.62
22.05
18.56
15.41
12.71
10.44
8.53
6.88
5.5
4.47
3.92
3.84
4.07
4.27
4.04
3.04
1.18
-1.34
-4.22
-7.17
-10.12
-13.36
-17.38
-22.73
-29.83
-38.67
-48.72
-58.79
-67.17
-72.07
-72.19
-67.27
-58.37
-47.44
-36.76
-28.22
-22.83
-20.71
-21.37
-24.13
-28.59
-34.76
-43.04
-53.98
-67.99
-85.07
-104.64
-108.38000000000001
-108.38000000000001
-108.38000000000001
-108.38000000000001
-108.38000000000001
-108.38000000000001
-108.38000000000001
-108.38000000000001
-108.38000000000001
-108.38000000000001
-108.38000000000001
-108.38000000000001
-108.38000000000001
-108.38000000000001
-108.38000000000001
-108.38000000000001
-105.72
-80.03
-48.1
-11.98
24.75
56.88
78.53
84.87
74.3
49.62
17.31
-15.02
-41.94
-62.25
-78.84
-96.32
-108.38000000000001
-108.38000000000001
-108.38000000000001
-108.38000000000001
-108.38000000000001
-108.38000000000001
-108.38000000000001
-108.38000000000001
-108.38000000000001
-108.38000000000001
-108.38000000000001
-108.38000000000001
-94.61
-77.56
-61.98
-49.24
-39.79
-32.86
-26.72
-19.32
-9.26
3.75
18.87
34.7
49.85
63.83
76.96
90.21
104.75
108.10000000000001
108.10000000000001
108.10000000000001
108.10000000000001
108.10000000000001
108.10000000000001
108.10000000000001
108.10000000000001
108.10000000000001
108.10000000000001
108.10000000000001
108.10000000000001
108.10000000000001
108.10000000000001
108.10000000000001
108.10000000000001
108.10000000000001
108.10000000000001
108.10000000000001
106.69
91.31
84.35
82.94
83.44
82.7
79.0
72.29
63.63
54.59
46.46
40.0
35.62
33.66
34.59
38.79
46.33
56.62
68.51
80.6
91.73
101.38
108.10000000000001
108.10000000000001
108.10000000000001
108.10000000000001
108.10000000000001
108.10000000000001
108.10000000000001
108.10000000000001
108.10000000000001
108.10000000000001
83.2
54.1
24.19
-3.41
-26.42
-43.87
-56.02
-63.89
-68.72
-71.48
-72.79
-72.69
-70.77
-66.25
-58.34
-46.72
-31.97
-15.64
0.13
13.38
22.83
28.28
30.18
29.16
25.59
19.72
12.06
3.73
-3.52
-8.02
-8.94
-6.84
-3.41
-0.6
0.5
0.34
0.61
3.44
10.2
20.91
34.2
48.05
60.13
68.06
69.4
62.17
46.03
23.65
1.08
-13.69
-13.81
3.09
33.24
67.9
96.78
108.10000000000001
108.10000000000001
95.8
70.74
40.24
6.71
-29.17
-66.95
-105.05
-108.38000000000001
-108.38000000000001
-108.38000000000001
-108.38000000000001
-108.38000000000001
-108.38000000000001
-108.38000000000001
-108.38000000000001
-108.38000000000001
-108.38000000000001
-108.38000000000001
-108.38000000000001
-95.83
-49.77
0.02
50.51
100.59
108.10000000000001
108.10000000000001
108.10000000000001
108.10000000000001
108.10000000000001
108.10000000000001
108.10000000000001
108.10000000000001
108.10000000000001
108.10000000000001
108.10000000000001
108.10000000000001
108.10000000000001
108.10000000000001
108.10000000000001
108.10000000000001
108.10000000000001
108.10000000000001
108.10000000000001
108.10000000000001
76.87
38.2
-2.39
-43.53
-82.43
-108.38000000000001
-108.38000000000001
-108.38000000000001
-108.38000000000001
-108.38000000000001
-108.38000000000001
-108.38000000000001
-108.38000000000001
-108.38000000000001
-108.38000000000001
-108.38000000000001
-108.38000000000001
-108.38000000000001
-108.38000000000001
-108.38000000000001
-108.38000000000001
-79.98
-43.54
-11.31
15.14
34.27
44.76
46.21
39.7
28.03
15.1
4.64
-1.17
-2.42
-1.17
-0.17
-1.28
-4.6
-8.66
-11.55
-12.4
-11.8
-11.51
-13.47
-18.86
-27.79
-39.78
-54.11
-70.07
-86.7
-102.43
-108.38000000000001
-108.38000000000001
-108.38000000000001
-108.38000000000001
-108.38000000000001
-104.37
-93.85
-82.81
-71.01
-58.4
-45.47
-33.24
-22.69
-14.11
-6.93
-0.08
7.33
15.47
23.67
30.87
36.23
39.54
41.32
42.56
44.19
46.65
49.81
53.08
55.72
57.1
56.87
54.87
50.88
44.43
34.69
20.73
2.17
-20.39
-45.07
-69.34
-91.13
-108.38000000000001
-108.38000000000001
-108.38000000000001
-108.38000000000001
-108.38000000000001
-108.38000000000001
-108.38000000000001
-108.38000000000001
-108.38000000000001
-108.38000000000001
-108.38000000000001
-108.38000000000001
-108.38000000000001
-108.38000000000001
-108.38000000000001
-108.38000000000001
-108.38000000000001
-108.38000000000001
-108.38000000000001
-108.38000000000001
-108.38000000000001
-108.38000000000001
-108.38000000000001
-108.38000000000001
-94.5
-56.85
-17.06
23.2
61.84
97.0
108.10000000000001
108.10000000000001
108.10000000000001
108.10000000000001
108.10000000000001
108.10000000000001
108.10000000000001
108.10000000000001
108.10000000000001
108.10000000000001
108.10000000000001
108.10000000000001
108.10000000000001
108.10000000000001
108.10000000000001
108.10000000000001
108.10000000000001
108.10000000000001
108.10000000000001
108.10000000000001
108.10000000000001
108.10000000000001
108.10000000000001
102.98
76.26
52.26
31.28
13.72
-0.18
-10.35
-16.94
-20.18
-20.55
-19.19
-18.29
-20.85
-29.77
-46.16
-68.11
-90.77
-107.82
-108.38000000000001
-107.9
-91.49
-70.02
-49.17
-32.88
-22.44
-16.97
-14.74
-14.4
-15.49
-18.02
-21.81
-26.14
-29.79
-31.59
-31.03
-28.52
-25.31
-23.0
-22.88
-25.39
-30.0
-35.5
-40.57
-44.35
-46.71
-48.19
-49.56
-51.4
-53.83
-56.54
-58.98
-60.62
-61.25
-60.98
-60.2
-59.5
-59.3
-59.7
-60.32
-60.47
-59.4
-56.7
-52.46
-47.29
-41.95
-36.99
-32.6
-28.59
-24.66
-20.69
-16.88
-13.63
-11.34
-10.23
-10.12
-10.63
-11.24
-11.6
-11.52
-11.03
-10.26
-9.38
-8.56
-7.86
-7.42
-7.31
-7.6
-8.31
-9.31
-10.4
-11.4
-12.21
-12.93
-13.79
-15.12
-17.23
-20.23
-23.89
-27.61
-30.52
-31.7
-30.58
-27.07
-21.75
-15.56
-9.58
-4.63
-1.12
1.02
2.16
2.72
3.04
3.26
3.39
3.34
3.12
2.78
2.43
2.21
2.08
1.91
1.53
0.86
-0.07
-1.07
-1.94
-2.67
-3.37
-4.29
-5.66
-7.55
-9.88
-12.55
-15.5
-18.78
-22.46
-26.45
-30.34
-33.35
-34.61
-33.42
-29.55
-23.36
-15.71
-7.7
-0.25
6.05
11.03
14.82
17.63
19.64
20.88
21.36
21.06
20.09
18.62
16.85
14.93
12.92
10.74
8.25
5.38
2.19
-0.99
-3.72
-5.59
-6.4
-6.28
-5.59
-4.94
-4.86
-5.82
-8.09
-11.66
-16.29
-21.37
-26.21
-29.99
-32.1
-32.15
-30.13
-26.33
-21.21
-15.32
-9.13
-2.99
2.99
8.82
14.61
20.25
25.38
29.4
31.64
31.74
29.85
26.61
22.88
19.49
16.88
15.09
13.98
13.23
12.56
11.7
10.46
8.68
6.35
3.64
0.79
-1.99
-4.73
-7.74
-11.46
-16.33
-22.49
-29.64
-36.91
-43.12
-46.98
-47.51
-44.31
-37.75
-28.86
-19.05
-9.76
-2.02
3.61
7.2
9.17
10.11
10.55
10.78
10.99
11.22
11.57
12.11
12.9
13.82
14.57
14.76
14.02
12.2
9.43
6.0
2.23
-1.63
-5.46
-9.19
-12.69
-15.8
-18.41
-20.58
-22.49
-24.39
-26.44
-28.52
-30.33
-31.56
-32.03
-31.91
-31.63
-31.79
-32.9
-35.18
-38.39
-41.77
-44.19
-44.47
-41.71
-35.67
-26.9
-16.65
-6.44
2.39
9.14
13.86
17.18
20.01
23.09
26.72
30.71
34.56
37.69
39.64
40.12
39.08
36.62
33.01
28.7
24.23
20.3
17.48
16.15
16.31
17.64
19.5
21.3
22.56
23.1
23.06
22.6
21.88
20.81
19.06
16.21
11.94
6.22
-0.69
-8.2
-15.71
-22.59
-28.42
-33.07
-36.73
-39.85
-42.98
-46.49
-50.28
-53.68
-55.49
-54.41
-49.51
-40.75
-29.1
-16.23
-4.05
5.98
13.15
17.55
19.79
20.56
20.43
19.74
18.71
17.48
16.26
15.13
14.14
13.21
12.16
10.86
9.3
7.56
5.83
4.36
3.38
2.98
3.11
3.48
3.74
3.52
2.69
1.39
0.04
-0.9
-1.17
-0.82
-0.28
-0.14
-0.91
-2.8
-5.65
-9.09
-12.71
-16.32
-19.91
-23.59
-27.46
-31.48
-35.53
-39.47
-43.22
-46.68
-49.52
-51.11
-50.6
-47.27
-40.86
-31.92
-21.62
-11.38
-2.37
4.85
10.32
14.49
17.87
20.8
23.48
25.99
28.43
30.93
33.46
35.95
38.16
39.82
40.68
40.69
39.92
38.65
37.23
35.85
34.53
32.96
30.61
26.95
21.69
14.98
7.41
-0.16
-6.91
-12.26
-16.11
-18.67
-20.31
-21.41
-22.15
-22.54
-22.51
-22.26
-22.12
-22.66
-24.43
-27.61
-32.0
-36.8
-40.91
-43.07
-42.26
-37.99
-30.43
-20.47
-9.45
1.08
9.82
16.0
19.54
20.98
21.05
20.45
19.46
18.05
15.98
13.14
9.73
6.22
3.31
1.49
0.96
1.56
3.0
4.83
6.76
8.65
10.43
12.12
13.71
15.21
16.63
18.02
19.43
20.93
22.58
24.35
26.11
27.57
28.31
27.78
25.42
20.83
13.81
4.59
-6.17
-17.33
-27.54
-35.43
-40.0
-40.93
-38.61
-34.02
-28.41
-23.01
-18.69
-15.88
-14.63
-14.69
-15.76
-17.49
-19.6
-21.83
-24.0
-26.02
-27.82
-29.54
-31.36
-33.52
-36.11
-38.98
-41.64
-43.47
-43.93
-42.9
-40.84
-38.57
-37.13
-37.21
-39.17
-42.86
-47.94
-54.1
-61.18
-69.25
-78.39
-88.56
-99.46
-108.38000000000001
-108.38000000000001
-108.38000000000001
-108.38000000000001
-108.38000000000001
-108.38000000000001
-108.38000000000001
-105.5
-89.53
-73.67
-59.82
-49.0
-41.34
-36.16
-32.58
-29.98
-28.41
-28.41
-30.83
-36.22
-44.38
-54.24
-63.99
-71.72
-76.26
-77.65
-77.1
-76.51
-77.58
-80.96
-86.07
-91.49
-95.68
-97.92
-98.72
-99.58
-102.56
-108.38000000000001
-108.38000000000001
-108.38000000000001
-108.38000000000001
-108.38000000000001
-108.38000000000001
-108.38000000000001
-108.38000000000001
-108.38000000000001
-108.38000000000001
-108.38000000000001
-108.38000000000001
-108.38000000000001
-108.38000000000001
-108.38000000000001
-108.38000000000001
-108.38000000000001
-108.38000000000001
-108.38000000000001
-108.38000000000001
-108.38000000000001
-108.38000000000001
-108.38000000000001
-108.38000000000001
-108.38000000000001
-108.38000000000001
-108.38000000000001
-108.38000000000001
-90.39
-46.81
-3.06
41.66
87.29
108.10000000000001
108.10000000000001
108.10000000000001
108.10000000000001
108.10000000000001
108.10000000000001
108.10000000000001
108.10000000000001
108.10000000000001
108.10000000000001
108.10000000000001
108.10000000000001
108.10000000000001
108.10000000000001
108.10000000000001
108.10000000000001
108.10000000000001
108.10000000000001
108.10000000000001
108.10000000000001
108.10000000000001
108.10000000000001
108.10000000000001
108.10000000000001
108.10000000000001
108.10000000000001
108.10000000000001
108.10000000000001
108.10000000000001
108.10000000000001
108.10000000000001
108.10000000000001
108.10000000000001
108.10000000000001
108.10000000000001
108.10000000000001
108.10000000000001
108.10000000000001
108.10000000000001
100.75
71.48
46.4
25.69
8.35
-7.36
-23.23
-40.39
-58.77
-77.01
-92.61
-102.57
-104.28
-96.54
-80.19
-58.28
-35.44
-16.69
-6.08
-5.36
-13.42
-26.39
-38.77
-45.02
-41.39
-27.29
-5.4
19.14
40.52
54.1
57.54
51.05
36.62
16.99
-5.34
-28.5
-51.23
-72.61
-91.82
-108.17
-108.38000000000001
-108.38000000000001
-108.38000000000001
-108.38000000000001
-108.38000000000001
-108.38000000000001
-108.38000000000001
-108.38000000000001
-108.38000000000001
-108.38000000000001
-108.38000000000001
-108.38000000000001
-108.38000000000001
-108.38000000000001
-108.38000000000001
-108.38000000000001
-108.38000000000001
-91.51
-52.44
-15.27
14.2
32.66
40.4
40.71
38.41
37.74
41.14
48.95
59.96
72.45
84.76
95.51
103.46
107.44
106.63
100.86
90.92
78.41
65.34
53.33
43.2
34.89
27.69
20.81
13.75
6.45
-0.75
-7.31
-12.68
-16.41
-18.21
-18.15
-16.55
-14.11
-11.75
-10.48
-11.11
-14.14
-19.48
-26.47
-33.87
-40.03
-43.25
-42.27
-36.68
-27.23
-15.7
-4.45
4.41
9.55
10.83
9.05
5.47
1.3
-2.59
-5.7
-7.76
-8.6
-8.37
-7.57
-7.16
-8.31
-11.88
-18.04
-26.06
-34.64
-42.31
-47.99
-51.24
-52.16
-51.2
-48.87
-45.54
-41.44
-36.64
-31.11
-24.93
-18.4
-12.17
-7.25
-4.63
-5.05
-8.54
-14.29
-20.7
-25.63
-26.91
-22.75
-12.24
4.43
25.88
49.82
73.6
95.02
108.10000000000001
108.10000000000001
108.10000000000001
108.10000000000001
108.10000000000001
108.10000000000001
108.10000000000001
108.10000000000001
108.10000000000001
108.10000000000001
108.10000000000001
108.10000000000001
108.10000000000001
95.55
75.01
54.8
35.37
17.26
1.37
-11.39
-20.37
-25.46
-27.16
-26.38
-24.17
-21.53
-19.29
-18.02
-18.02
-19.45
-22.31
-26.66
-32.58
-40.25
-49.82
-61.21
-73.84
-86.39
-96.94
-103.31
-103.88
-98.2
-87.37
-73.63
-59.63
-47.46
-38.0
-30.95
-25.41
-20.62
-16.55
-13.72
-12.76
-13.76
-16.09
-18.59
-20.22
-20.42
-19.33
-17.57
-15.77
-14.2
-12.64
-10.51
-7.21
-2.45
3.51
10.0
16.08
20.87
23.77
24.55
23.39
20.67
16.79
12.11
6.9
1.36
-4.28
-9.67
-14.43
-18.19
-20.77
-22.25
-23.01
-23.63
-24.66
-26.35
-28.49
-30.38
-31.06
-29.73
-26.07
-20.39
-13.54
-6.55
-0.28
4.83
8.71
11.51
13.2
13.59
12.4
9.54
5.31
0.42
-4.18
-7.74
-9.91
-10.94
-11.36
-11.79
-12.49
-13.37
-14.11
-14.47
-14.52
-14.63
-15.28
-16.76
-19.06
-21.83
-24.57
-26.84
-28.37
-29.15
-29.22
-28.67
-27.57
-25.98
-24.07
-22.06
-20.29
-19.08
-18.64
-18.91
-19.56
-20.07
-19.86
-18.57
-16.04
-12.42
-7.97
-3.0
2.32
7.78
13.18
18.23
22.55
25.85
27.96
28.95
29.04
28.44
27.24
25.38
22.9
20.01
17.22
15.1
14.05
14.2
15.21
16.61
17.85
18.61
18.72
18.2
17.02
15.21
12.81
9.97
6.93
3.91
1.08
-1.57
-4.14
-6.75
-9.56
-12.68
-16.11
-19.67
-22.98
-25.49
-26.7
-26.31
-24.4
-21.39
-17.89
-14.41
-11.23
-8.41
-5.88
-3.59
-1.66
-0.23
0.58
0.82
0.71
0.55
0.5
0.6
0.66
0.48
-0.08
-1.0
-2.07
-3.04
-3.7
-4.01
-4.1
-4.22
-4.58
-5.26
-6.16
-7.16
-8.08
-8.85
-9.52
-10.29
-11.43
-13.22
-15.87
-19.49
-24.02
-29.16
-34.48
-39.35
-43.11
-45.12
-44.88
-42.15
-37.01
-29.93
-21.65
-13.15
-5.3
1.21
5.95
8.77
9.78
9.27
7.72
5.76
4.05
3.04
2.9
3.31
3.67
3.3
1.84
-0.72
-3.94
-7.12
-9.65
-11.14
-11.56
-11.18
-10.45
-9.77
-9.45
-9.62
-10.3
-11.44
-13.0
-15.03
-17.48
-20.29
-23.28
-26.13
-28.47
-29.93
-30.31
-29.47
-27.35
-23.86
-18.93
-12.68
-5.48
1.95
8.81
14.46
18.63
21.53
23.57
25.18
26.5
27.46
27.78
27.34
26.12
24.31
22.12
19.7
17.24
14.92
13.01
11.58
10.57
9.6
8.17
5.94
2.81
-0.93
-4.73
-8.12
-10.8
-12.78
-14.25
-15.41
-16.4
-17.26
-18.09
-18.99
-20.05
-21.21
-22.22
-22.69
-22.22
-20.64
-18.07
-14.89
-11.6
-8.64
-6.3
-4.64
-3.61
-3.03
-2.68
-2.34
-1.82
-1.08
-0.25
0.48
0.89
0.88
0.5
-0.14
-0.92
-1.79
-2.76
-3.83
-4.95
-5.98
-6.75
-7.16
-7.21
-7.06
-6.95
-7.17
-7.91
-9.14
-10.69
-12.17
-13.18
-13.51
-13.24
-12.79
-12.78
-13.75
-15.88
-18.86
-21.93
-24.18
-24.85
-23.6
-20.6
-16.41
-11.77
-7.35
-3.61
-0.8
1.05
2.04
2.43
2.49
2.51
2.65
2.91
3.12
3.02
2.46
1.38
-0.07
-1.68
-3.24
-4.67
-6.03
-7.51
-9.4
-11.95
-15.33
-19.39
-23.74
-27.79
-30.92
-32.64
-32.61
-30.58
-26.3
-19.53
-10.12
1.81
15.7
30.62
45.34
58.61
69.24
76.42
79.69
79.06
74.98
68.22
59.83
50.97
42.82
36.31
32.05
30.08
29.83
30.31
30.49
29.86
28.61
27.54
27.49
28.7
30.58
32.07
32.31
31.33
30.15
30.13
32.11
35.73
39.41
41.16
39.46
34.06
25.9
16.72
8.22
1.5
-3.04
-5.52
-6.33
-5.84
-4.34
-2.15
0.44
2.94
4.85
5.7
5.24
3.54
1.03
-1.68
-3.99
-5.43
-5.78
-5.04
-3.38
-1.17
1.1
2.88
3.71
3.36
1.84
-0.56
-3.47
-6.5
-9.49
-12.38
-15.24
-18.1
-21.02
-23.95
-26.91
-29.94
-33.11
-36.52
-40.22
-44.17
-48.26
-52.24
-55.79
-58.62
-60.6
-61.83
-62.59
-63.26
-64.1
-65.18
-66.32
-67.15
-67.26
-66.38
-64.34
-61.19
-57.08
-52.24
-46.93
-41.39
-35.93
-30.81
-26.25
-22.38
-19.2
-16.62
-14.51
-12.77
-11.34
-10.17
-9.21
-8.39
-7.65
-6.95
-6.29
-5.59
-4.74
-3.6
-2.17
-0.65
0.4
0.39
-1.17
-4.43
-9.13
-14.79
-20.89
-27.08
-33.19
-39.15
-44.92
-50.34
-55.13
-58.87
-60.96
-60.71
-57.47
-50.94
-41.32
-29.48
-16.72
-4.42
6.33
15.0
21.66
26.69
30.39
32.82
33.72
32.76
29.77
24.96
18.85
12.27
6.21
1.67
-0.48
0.27
3.79
9.2
15.0
19.56
21.71
21.21
18.84
16.1
14.39
14.54
16.48
19.46
22.49
24.87
26.34
27.07
27.36
27.36
27.0
26.03
24.2
21.37
17.5
12.62
6.78
0.19
-6.66
-12.81
-16.77
-16.85
-11.82
-1.6
12.3
27.0
39.12
45.89
46.26
41.15
32.87
24.13
16.94
11.99
8.87
6.59
4.32
1.82
-0.53
-2.12
-2.39
-1.23
0.94
3.34
5.05
5.47
4.47
2.46
0.04
-2.22
-4.1
-5.74
-7.53
-9.89
-13.14
-17.48
-23.0
-29.7
-37.35
-45.33
-52.58
-57.73
-59.62
-57.55
-51.68
-42.92
-32.58
-21.94
-11.95
-3.1
4.46
10.7
15.68
19.47
22.23
24.22
25.76
27.09
28.3
29.38
30.22
30.71
30.82
30.57
29.92
28.76
26.85
23.95
19.84
14.54
8.27
1.43
-5.45
-11.9
-17.64
-22.58
-26.86
-30.87
-35.14
-40.2
-46.43
-53.87
-62.04
-70.05
-76.63
-80.5
-80.73
-77.02
-69.77
-60.0
-48.92
-37.62
-26.79
-16.68
-7.27
1.51
9.57
16.71
22.65
27.2
30.48
32.93
35.28
38.34
42.74
48.63
55.54
62.48
68.22
71.85
73.02
72.08
69.74
66.67
63.26
59.43
54.97
49.55
42.94
34.88
25.14
13.53
0.14
-14.41
-29.06
-42.34
-52.9
-59.72
-62.41
-61.0
-55.84
-47.4
-36.19
-22.87
-8.19
6.97
21.81
35.63
48.04
58.86
67.88
74.81
79.08
80.06
77.19
70.47
60.5
48.49
35.9
24.0
13.58
4.85
-2.33
-8.25
-13.08
-16.83
-19.38
-20.81
-21.51
-22.25
-24.0
-27.54
-33.05
-39.91
-46.84
-52.51
-56.08
-57.73
-58.43
-59.45
-61.53
-64.46
-67.04
-67.61
-64.71
-57.56
-46.13
-30.96
-12.88
7.14
27.91
47.95
65.59
79.2
87.62
90.51
88.47
82.8
75.13
66.99
59.44
53.04
47.9
43.85
40.62
38.03
35.91
34.22
32.95
32.04
31.36
30.7
29.92
28.98
28.03
27.3
27.03
27.3
27.99
28.83
29.55
29.88
29.65
28.68
26.82
23.95
20.14
15.55
10.49
5.19
-0.24
-5.81
-11.52
-17.26
-22.73
-27.53
-31.37
-34.18
-36.17
-37.73
-39.19
-40.73
-42.29
-43.75
-45.09
-46.55
-48.52
-51.4
-55.29
-59.74
-63.9
-66.76
-67.6
-66.36
-63.71
-60.72
-58.38
-57.13
-56.58
-55.87
-53.91
-50.04
-44.31
-37.47
-30.71
-25.21
-21.84
-20.8
-21.7
-23.41
-24.35
-22.81
-17.39
-7.55
5.88
20.74
33.99
42.67
45.14
41.87
35.36
29.24
26.81
29.7
37.33
47.36
56.8
63.22
65.42
63.38
57.79
49.45
39.04
27.28
15.21
4.23
-4.16
-8.88
-9.76
-7.63
-4.09
-0.93
0.53
-0.19
-2.64
-5.84
-8.79
-10.92
-12.32
-13.64
-15.66
-18.98
-23.65
-29.24
-34.93
-39.79
-43.0
-44.03
-42.69
-39.09
-33.56
-26.53
-18.51
-9.92
-1.26
6.98
14.25
20.03
24.03
26.21
26.96
26.84
26.55
26.58
27.15
28.21
29.53
30.88
32.1
33.19
34.11
34.94
35.73
36.47
37.28
38.21
39.36
40.7
42.15
43.47
44.42
44.82
44.5
43.45
41.79
39.79
37.81
36.2
35.15
34.66
34.62
34.97
36.16
39.05
44.7
53.78
66.05
80.11
93.71
104.5
108.10000000000001
108.10000000000001
107.21
98.38
85.96
71.04
55.08
39.9
27.33
18.48
13.17
9.79
6.01
-0.11
-9.23
-20.47
-32.03
-42.28
-50.68
-57.84
-65.02
-73.15
-81.95
-89.98
-95.19
-95.86
-91.31
-82.13
-69.73
-55.7
-41.34
-27.42
-14.41
-2.71
7.04
14.09
17.79
17.95
15.03
10.06
4.33
-1.09
-5.56
-9.08
-11.95
-14.58
-17.09
-19.21
-20.55
-20.76
-19.97
-18.7
-17.67
-17.41
-18.03
-19.23
-20.41
-21.05
-20.79
-19.68
-17.98
-16.16
-14.62
-13.57
-12.85
-11.87
-9.86
-6.15
-0.65
5.98
12.44
17.26
19.4
18.59
15.44
11.01
6.43
2.44
-0.58
-2.55
-3.43
-3.15
-1.66
1.0
4.45
8.2
11.64
14.31
16.0
16.81
17.05
17.12
17.4
18.04
18.99
19.83
20.08
19.25
17.05
13.54
9.1
4.24
-0.65
-5.54
-10.73
-16.8
-24.18
-32.92
-42.44
-51.71
-59.5
-64.78
-67.04
-66.38
-63.48
-59.27
-54.82
-51.04
-48.69
-48.19
-49.69
-53.08
-57.97
-63.9
-70.29
-76.55
-82.08
-86.24
-88.18
-86.9
-81.33
-70.64
-54.78
-34.69
-12.36
9.68
29.01
44.0
54.09
59.58
61.27
59.98
56.45
51.37
45.55
39.82
34.74
30.34
26.1
21.26
15.31
8.43
1.55
-4.02
-7.08
-7.07
-4.26
0.4
5.68
10.51
14.27
16.84
18.45
19.44
20.06
20.4
20.4
19.95
18.95
17.32
15.07
12.18
8.74
4.93
1.15
-2.09
-4.19
-4.72
-3.65
-1.41
1.26
3.52
4.75
4.77
3.78
2.26
0.65
-0.8
-2.08
-3.3
-4.45
-5.34
-5.56
-4.8
-2.93
-0.15
3.02
6.0
8.24
9.43
9.48
8.49
6.57
3.91
0.75
-2.72
-6.21
-9.58
-12.84
-16.18
-19.93
-24.36
-29.57
-35.36
-41.28
-46.66
-50.99
-53.93
-55.58
-56.39
-56.91
-57.64
-58.84
-60.57
-62.67
-65.02
-67.43
-69.54
-70.74
-70.19
-67.05
-60.83
-51.59
-39.92
-26.78
-13.1
0.29
12.77
23.86
33.14
40.34
45.32
48.25
49.44
49.3
48.23
46.52
44.44
42.19
39.94
37.74
35.56
33.3
30.92
28.51
26.25
24.38
23.04
22.23
21.76
21.43
21.01
20.28
19.07
17.22
14.63
11.32
7.55
3.72
0.36
-2.09
-3.35
-3.31
-2.03
0.36
3.66
7.65
12.06
16.56
20.74
24.25
26.8
28.27
28.78
28.59
28.14
27.92
28.38
29.7
31.72
33.88
35.35
35.35
33.38
29.38
23.76
17.23
10.5
4.17
-1.37
-5.94
-9.48
-12.01
-13.69
-14.68
-15.16
-15.14
-14.45
-12.8
-9.88
-5.49
0.35
7.35
15.01
22.63
29.52
35.17
39.39
42.36
44.61
46.77
49.39
52.86
57.31
62.59
68.2
73.16
76.13
75.73
71.05
62.05
49.63
35.32
20.7
6.88
-5.7
-17.06
-27.24
-36.03
-42.91
-47.39
-49.25
-48.83
-46.85
-44.17
-41.46
-39.11
-37.2
-35.63
-34.19
-32.65
-30.76
-28.19
-24.6
-19.69
-13.37
-5.86
2.35
10.57
18.12
24.57
29.76
33.73
36.45
37.62
36.57
32.52
24.91
13.74
-0.26
-15.75
-31.19
-45.18
-56.74
-65.3
-70.69
-72.99
-72.38
-69.28
-64.24
-57.97
-51.25
-44.73
-38.9
-33.96
-29.93
-26.65
-24.02
-22.0
-20.65
-19.97
-19.81
-19.76
-19.22
-17.65
-14.75
-10.53
-5.4
0.07
5.24
9.65
12.99
15.25
16.56
17.19
17.35
17.15
16.63
15.76
14.6
13.26
11.89
10.63
9.47
8.37
7.25
6.13
5.02
4.02
3.13
2.31
1.45
0.44
-0.86
-2.54
-4.62
-7.12
-9.93
-12.94
-15.99
-19.04
-22.16
-25.45
-29.0
-32.65
-36.01
-38.52
-39.63
-39.07
-36.85
-33.28
-28.71
-23.53
-17.92
-12.03
-6.01
-0.16
5.16
9.65
13.21
16.01
18.35
20.53
22.72
24.96
27.23
29.52
31.9
34.36
36.78
38.95
40.59
41.49
41.59
40.92
39.57
37.62
35.08
32.04
28.69
25.32
22.22
19.57
17.35
15.38
13.37
11.04
8.2
4.82
0.97
-3.18
-7.34
-11.14
-14.17
-16.01
-16.35
-15.08
-12.33
-8.46
-3.98
0.63
4.96
8.78
11.96
14.5
16.37
17.58
18.1
18.0
17.36
16.39
15.31
14.34
13.62
13.15
12.85
12.56
12.23
11.93
11.8
11.97
12.41
12.99
13.43
13.48
13.03
12.11
10.86
9.4
7.82
6.08
4.14
1.96
-0.4
-2.78
-4.99
-6.8
-8.22
-9.32
-10.33
-11.49
-13.04
-15.08
-17.57
-20.36
-23.22
-25.85
-27.9
-29.08
-29.14
-28.04
-26.02
-23.44
-20.8
-18.44
-16.45
-14.65
-12.74
-10.48
-7.8
-4.95
-2.19
0.18
2.04
3.37
4.22
4.63
4.61
4.25
3.69
3.21
2.98
3.16
3.73
4.58
5.58
6.6
7.6
8.54
9.46
10.27
10.93
11.39
11.57
11.44
11.03
10.37
9.46
8.37
7.11
5.72
4.31
2.94
1.72
0.67
-0.22
-1.06
-1.95
-2.92
-3.93
-4.88
-5.76
-6.59
-7.52
-8.64
-9.91
-11.12
-11.89
-11.95
-11.21
-9.85
-8.16
-6.49
-5.0
-3.67
-2.44
-1.25
-0.18
0.66
1.21
1.61
2.14
3.05
4.52
6.38
8.32
9.9
10.86
11.14
10.94
10.57
10.32
10.32
10.51
10.68
10.62
10.18
9.37
8.19
6.7
4.87
2.66
0.1
-2.71
-5.47
-7.86
-9.61
-10.59
-10.83
-10.47
-9.66
-8.53
-7.15
-5.51
-3.64
-1.57
0.53
2.4
3.56
3.56
2.11
-0.73
-4.41
-8.06
-10.79
-12.02
-11.71
-10.24
-8.17
-5.91
-3.57
-1.04
1.86
5.14
8.68
12.22
15.55
18.47
20.9
22.87
24.63
26.67
29.71
34.38
40.83
48.46
55.87
61.33
63.36
61.39
55.93
48.44
40.83
34.78
31.42
31.11
33.6
38.3
44.5
51.6
59.14
66.79
74.25
81.26
87.29
91.64
93.21
90.59
82.35
67.41
45.54
17.72
-13.81
-46.05
-76.08
-101.96
-108.38000000000001
-108.38000000000001
-108.38000000000001
-108.38000000000001
-108.38000000000001
-108.38000000000001
-108.38000000000001
-108.38000000000001
-108.38000000000001
-108.38000000000001
-108.38000000000001
-108.38000000000001
-108.38000000000001
-108.38000000000001
-108.38000000000001
-96.16
-84.16
-75.11
-69.15
-65.2
-61.65
-57.11
-51.07
-44.04
-37.1
-31.26
-26.99
-24.06
-21.85
-19.72
-17.22
-14.26
-11.0
-7.64
-4.39
-1.26
1.75
4.67
7.33
9.47
10.68
10.6
9.14
6.56
3.59
1.18
0.16
0.91
3.22
6.43
9.79
12.98
16.28
20.65
27.37
37.48
51.5
69.0
88.61
107.93
108.10000000000001
108.10000000000001
108.10000000000001
108.10000000000001
108.10000000000001
101.77
86.74
75.0
67.27
62.39
58.22
52.84
45.46
36.44
26.77
17.39
8.77
1.02
-5.73
-11.1
-14.68
-16.2
-16.09
-15.25
-14.83
-15.71
-18.11
-21.59
-25.38
-28.77
-31.29
-32.9
-33.75
-34.05
-34.06
-33.97
-33.92
-34.01
-34.27
-34.62
-35.01
-35.4
-35.83
-36.38
-36.96
-37.31
-36.98
-35.49
-32.47
-27.92
-22.16
-15.66
-8.88
-2.06
4.7
11.39
17.92
24.13
29.76
34.64
38.68
41.77
43.89
44.95
44.99
44.19
42.94
41.69
40.74
40.19
39.81
39.35
38.6
37.53
36.35
35.28
34.58
34.38
34.76
35.51
36.22
36.17
34.48
30.49
23.98
15.42
5.8
-3.55
-11.45
-17.15
-20.46
-21.64
-21.28
-20.08
-18.79
-18.15
-18.68
-20.63
-23.86
-27.92
-32.22
-36.16
-39.36
-41.58
-42.76
-42.82
-41.64
-39.25
-35.79
-31.65
-27.28
-23.06
-19.08
-15.24
-11.41
-7.55
-3.93
-0.92
1.12
2.08
2.17
1.86
1.56
1.48
1.55
1.51
1.12
0.29
-0.83
-1.95
-2.72
-2.91
-2.59
-2.03
-1.69
-1.86
-2.67
-3.93
-5.29
-6.42
-7.11
-7.44
-7.6
-7.82
-8.2
-8.64
-8.94
-8.91
-8.44
-7.44
-5.88
-3.71
-0.95
2.29
5.72
8.91
11.47
13.08
13.65
13.28
12.18
10.56
8.62
6.58
4.69
3.26
2.48
2.38
2.71
3.1
3.19
2.78
1.91
0.82
-0.18
-0.88
-1.16
-1.04
-0.65
-0.11
0.4
0.77
0.9
0.81
0.52
0.08
-0.47
-1.16
-1.9
-2.62
-3.19
-3.61
-3.87
-4.02
-4.06
-3.73
-2.72
-0.69
2.42
6.32
10.39
13.9
16.35
17.58
17.84
17.48
16.82
15.97
14.88
13.41
11.47
9.09
6.32
3.31
0.19
-2.79
-5.26
-6.83
-7.2
-6.46
-5.04
-3.69
-3.08
-3.62
-5.24
-7.48
-9.85
-11.92
-13.61
-15.08
-16.6
-18.4
-20.48
-22.54
-23.98
-23.99
-21.71
-16.57
-8.59
1.43
12.06
21.59
28.57
32.14
32.23
29.44
24.68
18.98
13.27
8.33
4.76
2.94
2.93
4.36
6.49
8.36
9.12
8.32
5.93
2.43
-1.5
-5.1
-7.78
-9.22
-9.56
-9.39
-9.64
-11.28
-14.85
-20.13
-26.1
-31.41
-34.87
-36.05
-35.41
-33.91
-32.47
-31.41
-30.37
-28.63
-25.68
-21.58
-16.97
-12.86
-10.01
-8.77
-8.82
-9.57
-10.28
-10.44
-9.83
-8.46
-6.51
-4.13
-1.42
1.63
5.07
8.91
12.98
16.91
20.23
22.4
23.14
22.45
20.63
18.15
15.47
12.95
10.72
8.79
7.04
5.45
4.08
3.13
2.84
3.29
4.44
5.86
7.04
7.44
6.77
5.16
3.07
1.12
-0.27
-1.02
-1.34
-1.57
-1.98
-2.55
-3.09
-3.41
-3.42
-3.3
-3.32
-3.78
-4.76
-6.12
-7.58
-8.76
-9.44
-9.49
-8.99
-8.03
-6.73
-5.09
-3.07
-0.7
1.99
4.78
7.45
9.79
11.73
13.28
14.62
15.97
17.46
19.2
21.18
23.38
25.65
27.8
29.52
30.5
30.53
29.57
27.9
26.03
24.6
24.08
24.49
25.26
25.19
22.99
17.68
9.24
-1.34
-12.29
-21.75
-28.53
-32.52
-34.69
-36.51
-39.27
-43.52
-48.94
-54.62
-59.51
-62.88
-64.39
-64.07
-62.15
-58.98
-54.93
-50.44
-45.91
-41.57
-37.34
-32.77
-27.23
-20.32
-12.08
-3.11
5.69
13.43
19.62
24.18
27.44
29.79
31.5
32.69
33.38
33.62
33.58
33.52
33.6
33.87
34.14
34.11
33.51
32.24
30.45
28.48
26.7
25.23
23.99
22.61
20.74
18.21
15.15
11.94
9.03
6.7
4.94
3.63
2.55
1.56
0.69
-0.06
-0.68
-1.28
-1.97
-2.85
-3.86
-4.89
-5.89
-6.83
-7.84
-9.02
-10.35
-11.65
-12.62
-12.94
-12.41
-11.05
-9.08
-6.86
-4.79
-3.12
-1.88
-0.82
0.34
1.92
3.96
6.25
8.38
9.99
10.89
11.18
11.16
11.13
11.28
11.61
12.1
12.74
13.68
15.02
16.64
18.11
18.76
18.03
15.72
12.24
8.42
5.16
2.93
1.59
0.41
-1.52
-4.76
-9.35
-14.75
-20.15
-24.89
-28.55
-31.11
-32.66
-33.28
-33.01
-31.87
-29.96
-27.58
-25.21
-23.26
-22.04
-21.51
-21.41
-21.26
-20.65
-19.29
-17.11
-14.27
-11.0
-7.56
-4.15
-0.88
2.2
5.02
7.5
9.58
11.14
12.14
12.57
12.57
12.31
11.97
11.68
11.5
11.37
11.21
10.98
10.68
10.34
10.02
9.7
9.34
8.9
8.35
7.73
7.18
6.84
6.84
7.18
7.67
8.04
7.94
7.22
5.93
4.34
2.78
1.44
0.34
-0.71
-1.88
-3.28
-4.72
-6.04
-7.04
-7.74
-8.34
-9.0
-9.87
-10.8
-11.54
-11.78
-11.32
-10.19
-8.59
-6.86
-5.21
-3.76
-2.44
-1.17
0.14
1.52
2.94
4.39
5.87
7.41
8.96
10.38
11.5
12.17
12.36
12.19
11.88
11.63
11.54
11.54
11.44
11.05
10.22
9.0
7.52
5.99
4.59
3.44
2.6
2.12
2.02
2.29
2.89
3.72
4.62
5.35
5.75
5.71
5.22
4.35
3.22
1.99
0.75
-0.46
-1.67
-2.88
-4.0
-4.86
-5.24
-4.99
-4.07
-2.64
-0.99
0.55
1.75
2.49
2.73
2.51
1.87
0.91
-0.28
-1.51
-2.56
-3.23
-3.45
-3.24
-2.74
-2.16
-1.62
-1.19
-0.84
-0.55
-0.29
-0.09
0.02
0.15
0.38
0.87
1.58
2.32
2.82
2.74
1.98
0.6
-1.02
-2.52
-3.6
-4.16
-4.39
-4.54
-4.93
-5.67
-6.73
-7.82
-8.64
-8.92
-8.54
-7.57
-6.25
-4.88
-3.69
-2.82
-2.28
-2.01
-1.89
-1.82
-1.75
-1.71
-1.81
-2.15
-2.79
-3.65
-4.55
-5.23
-5.47
-5.14
-4.25
-2.92
-1.36
0.21
1.54
2.45
2.81
2.63
1.95
0.94
-0.24
-1.37
-2.24
-2.71
-2.76
-2.54
-2.3
-2.3
-2.66
-3.35
-4.08
-4.52
-4.34
-3.39
-1.75
0.35
2.58
4.64
6.35
7.7
8.79
9.77
10.73
11.69
12.57
13.24
13.61
13.63
13.29
12.61
11.61
10.38
9.06
7.82
6.85
6.26
6.03
6.02
6.02
5.88
5.58
5.17
4.73
4.27
3.74
2.99
1.93
0.61
-0.86
-2.26
-3.51
-4.6
-5.66
-6.83
-8.13
-9.45
-10.61
-11.41
-11.76
-11.66
-11.16
-10.31
-9.16
-7.73
-6.11
-4.44
-2.95
-1.83
-1.18
-0.97
-1.06
-1.22
-1.29
-1.19
-0.92
-0.65
-0.5
-0.54
-0.77
-1.04
-1.3
-1.58
-2.07
-3.02
-4.51
-6.38
-8.27
-9.77
-10.61
-10.79
-10.49
-9.94
-9.28
-8.54
-7.69
-6.68
-5.6
-4.49
-3.38
-2.19
-0.79
0.81
2.48
3.94
4.9
5.13
4.62
3.5
2.06
0.62
-0.54
-1.22
-1.4
-1.22
-0.94
-0.82
-1.03
-1.61
-2.39
-3.11
-3.48
-3.25
-2.38
-0.98
0.72
2.39
3.75
4.68
5.2
5.47
5.75
6.27
7.18
8.5
10.15
11.94
13.64
15.03
15.91
16.15
15.7
14.57
12.89
10.8
8.49
6.11
3.8
1.55
-0.68
-3.02
-5.55
-8.3
-11.23
-14.18
-16.94
-19.21
-20.71
-21.18
-20.46
-18.59
-15.72
-12.15
-8.16
-3.98
0.26
4.43
8.4
11.93
14.68
16.38
16.92
16.48
15.43
14.21
13.16
12.33
11.62
10.75
9.54
7.95
6.16
4.48
3.2
2.47
2.23
2.24
2.27
2.18
2.01
1.9
1.98
2.29
2.71
3.0
3.02
2.72
2.19
1.55
0.87
0.12
-0.8
-2.01
-3.56
-5.38
-7.26
-8.88
-9.88
-10.02
-9.26
-7.78
-5.91
-4.05
-2.42
-1.12
-0.12
0.68
1.31
1.74
1.91
1.83
1.6
1.38
1.29
1.34
1.45
1.44
1.2
0.75
0.28
-0.0
0.12
0.73
1.72
2.88
3.89
4.49
4.46
3.79
2.57
1.08
-0.34
-1.44
-2.14
-2.6
-3.11
-3.97
-5.28
-6.85
-8.36
-9.37
-9.59
-8.95
-7.61
-5.83
-3.93
-2.15
-0.68
0.37
0.94
1.05
0.83
0.51
0.31
0.35
0.56
0.72
0.54
-0.12
-1.26
-2.61
-3.8
-4.51
-4.58
-4.08
-3.23
-2.33
-1.54
-0.88
-0.3
0.35
1.09
1.84
2.41
2.67
2.53
2.14
1.66
1.27
1.01
0.81
0.6
0.23
-0.34
-1.19
-2.32
-3.7
-5.21
-6.67
-7.82
-8.38
-8.2
-7.28
-5.77
-3.9
-1.91
0.06
1.91
3.52
4.82
5.78
6.44
6.88
7.17
7.39
7.55
7.65
7.67
7.67
7.67
7.72
7.76
7.67
7.39
6.97
6.65
6.58
6.92
7.52
8.12
8.44
8.33
7.87
7.21
6.5
5.8
5.04
4.18
3.22
2.24
1.34
0.5
-0.4
-1.49
-2.79
-4.11
-5.14
-5.61
-5.45
-4.9
-4.35
-4.2
-4.55
-5.17
-5.61
-5.39
-4.32
-2.41
0.02
2.65
5.16
7.21
8.34
7.98
5.76
1.73
-3.31
-8.15
-11.45
-12.38
-10.96
-7.9
-4.19
-0.59
2.65
5.73
8.92
12.29
15.53
18.13
19.59
19.65
18.29
15.66
12.05
7.73
3.01
-1.81
-6.45
-10.53
-13.77
-15.93
-16.99
-17.06
-16.42
-15.41
-14.31
-13.35
-12.62
-12.16
-11.94
-11.86
-11.82
-11.69
-11.38
-10.8
-9.96
-8.87
-7.53
-5.9
-3.95
-1.7
0.75
3.2
5.46
7.3
8.57
9.16
9.04
8.27
6.97
5.37
3.72
2.27
1.18
0.51
0.21
0.15
0.26
0.5
0.99
1.84
3.14
4.78
6.48
7.84
8.38
7.89
6.35
4.11
1.65
-0.54
-2.12
-2.97
-3.1
-2.72
-2.08
-1.43
-0.95
-0.74
-0.78
-1.0
-1.28
-1.58
-1.99
-2.58
-3.44
-4.55
-5.81
-7.12
-8.34
-9.47
-10.49
-11.39
-12.02
-12.21
-11.79
-10.7
-9.12
-7.33
-5.68
-4.38
-3.45
-2.63
-1.6
-0.19
1.57
3.29
4.52
4.91
4.4
3.23
1.83
0.56
-0.36
-0.89
-1.12
-1.08
-0.85
-0.44
0.1
0.69
1.26
1.68
1.9
1.87
1.62
1.23
0.87
0.64
0.57
0.57
0.42
-0.05
-0.88
-1.86
-2.64
-2.81
-2.14
-0.67
1.33
3.38
5.02
5.86
5.78
4.87
3.5
2.08
1.0
0.51
0.67
1.34
2.32
3.32
4.16
4.73
4.97
4.92
4.67
4.31
4.04
4.04
4.39
5.06
5.85
6.46
6.64
6.31
5.58
4.7
3.9
3.26
2.78
2.33
1.83
1.22
0.47
-0.48
-1.71
-3.23
-4.96
-6.68
-8.14
-9.21
-9.89
-10.29
-10.49
-10.49
-10.12
-9.21
-7.72
-5.85
-4.0
-2.49
-1.51
-0.94
-0.55
-0.08
0.59
1.37
2.09
2.66
3.12
3.61
4.3
5.19
6.13
6.87
7.24
7.13
6.57
5.73
4.72
3.63
2.49
1.25
-0.11
-1.56
-3.02
-4.41
-5.67
-6.82
-7.94
-9.07
-10.2
-11.17
-11.81
-12.02
-11.8
-11.33
-10.86
-10.67
-10.92
-11.57
-12.43
-13.21
-13.65
-13.54
-12.82
-11.56
-9.79
-7.59
-5.11
-2.5
-0.04
1.99
3.39
4.14
4.44
4.63
4.96
5.6
6.59
7.9
9.49
11.32
13.32
15.35
17.23
18.74
19.71
20.0
19.52
18.24
16.19
13.53
10.55
7.59
4.96
2.8
1.13
-0.15
-1.14
-1.8
-2.0
-1.56
-0.4
1.45
3.7
6.03
8.0
9.21
9.34
8.21
5.85
2.54
-1.17
-4.65
-7.27
-8.67
-8.82
-7.94
-6.46
-4.77
-3.23
-2.07
-1.35
-0.98
-0.72
-0.27
0.65
2.13
4.08
6.19
8.22
9.89
11.16
12.05
12.66
13.04
13.14
12.93
12.33
11.33
9.93
8.19
6.28
4.4
2.8
1.6
0.88
0.63
0.73
1.03
1.37
1.63
1.75
1.75
1.7
1.71
1.87
2.17
2.6
3.09
3.52
3.74
3.55
2.7
1.02
-1.48
-4.58
-7.85
-10.79
-13.05
-14.53
-15.34
-15.69
-15.81
-15.68
-15.27
-14.4
-13.08
-11.33
-9.27
-7.02
-4.7
-2.41
-0.29
1.5
2.87
3.76
4.25
4.45
4.51
4.54
4.56
4.56
4.44
4.17
3.75
3.28
2.93
2.87
3.21
3.9
4.8
5.65
6.21
6.35
6.05
5.4
4.5
3.5
2.5
1.59
0.86
0.36
0.06
-0.21
-0.67
-1.48
-2.66
-4.01
-5.27
-6.21
-6.79
-7.09
-7.3
-7.51
-7.72
-7.72
-7.37
-6.63
-5.64
-4.63
-3.76
-3.04
-2.35
-1.56
-0.68
0.09
0.49
0.3
-0.51
-1.69
-2.87
-3.71
-4.02
-3.9
-3.51
-3.11
-2.79
-2.52
-2.17
-1.62
-0.9
-0.09
0.63
1.18
1.58
1.94
2.4
3.01
3.72
4.36
4.79
4.95
4.9
4.79
4.69
4.54
4.1
3.18
1.63
-0.46
-2.9
-5.34
-7.44
-8.92
-9.64
-9.67
-9.17
-8.5
-7.89
-7.54
-7.44
-7.47
-7.55
-7.62
-7.79
-8.07
-8.43
-8.61
-8.36
-7.51
-6.09
-4.37
-2.6
-0.93
0.66
2.3
4.11
6.04
7.92
9.56
10.77
11.6
12.1
12.42
12.58
12.57
12.31
11.73
10.84
9.64
8.22
6.72
5.25
3.93
2.78
1.72
0.59
-0.78
-2.55
-4.68
-7.02
-9.26
-11.13
-12.43
-13.09
-13.2
-12.87
-12.26
-11.46
-10.5
-9.4
-8.19
-6.94
-5.72
-4.55
-3.36
-2.03
-0.49
1.28
3.13
4.8
6.03
6.67
6.73
6.43
6.11
6.01
6.26
6.77
7.33
7.71
7.86
7.84
7.8
7.89
8.09
8.32
8.39
8.26
7.92
7.41
6.72
5.75
4.42
2.74
0.89
-0.82
-2.1
-2.88
-3.28
-3.58
-4.09
-4.95
-6.19
-7.72
-9.42
-11.08
-12.45
-13.24
-13.2
-12.27
-10.58
-8.5
-6.46
-4.8
-3.68
-3.1
-2.97
-3.16
-3.56
-3.98
-4.21
-4.03
-3.29
-2.07
-0.57
0.94
2.25
3.23
3.93
4.45
4.88
5.33
5.84
6.47
7.23
8.16
9.24
10.39
11.52
12.49
13.21
13.56
13.53
13.15
12.45
11.46
10.13
8.33
5.91
2.91
-0.53
-4.02
-7.08
-9.28
-10.36
-10.43
-9.82
-9.01
-8.39
-8.16
-8.24
-8.35
-8.24
-7.74
-6.89
-5.88
-4.98
-4.33
-3.96
-3.73
-3.39
-2.8
-1.86
-0.71
0.45
1.4
2.0
2.28
2.34
2.36
2.45
2.73
3.14
3.67
4.21
4.68
5.03
5.24
5.32
5.28
5.12
4.84
4.42
3.9
3.36
2.9
2.55
2.33
2.14
1.9
1.49
0.86
-0.02
-1.14
-2.4
-3.68
-4.8
-5.67
-6.29
-6.76
-7.15
-7.5
-7.65
-7.36
-6.43
-4.85
-2.79
-0.6
1.41
3.02
4.23
5.17
6.06
7.06
8.32
9.84
11.5
13.15
14.54
15.4
15.49
14.67
12.97
10.66
8.17
5.97
4.46
3.75
3.73
4.17
4.81
5.52
6.25
6.97
7.61
8.05
8.22
8.08
7.62
6.83
5.67
4.04
1.98
-0.32
-2.52
-4.34
-5.65
-6.56
-7.36
-8.23
-9.2
-10.06
-10.56
-10.55
-10.12
-9.53
-9.0
-8.64
-8.3
-7.76
-6.87
-5.64
-4.25
-2.94
-1.85
-0.95
-0.06
1.0
2.23
3.48
4.43
4.77
4.41
3.43
2.21
1.18
0.7
0.87
1.55
2.37
2.92
3.02
2.73
2.35
2.13
2.25
2.56
2.84
2.85
2.5
1.91
1.19
0.45
-0.38
-1.44
-2.84
-4.6
-6.61
-8.71
-10.7
-12.36
-13.47
-13.8
-13.16
-11.53
-9.1
-6.27
-3.55
-1.33
0.21
1.11
1.65
2.05
2.46
2.84
3.06
3.03
2.78
2.43
2.17
2.13
2.25
2.42
2.51
2.46
2.33
2.27
2.39
2.68
3.04
3.29
3.32
3.21
3.08
3.09
3.26
3.54
3.8
3.97
4.07
4.17
4.36
4.58
4.73
4.6
4.06
3.07
1.73
0.14
-1.56
-3.3
-5.11
-6.92
-8.67
-10.26
-11.54
-12.34
-12.57
-12.15
-11.06
-9.38
-7.26
-4.92
-2.56
-0.39
1.46
2.92
3.92
4.49
4.62
4.39
3.91
3.34
2.9
2.78
3.07
3.72
4.57
5.37
5.99
6.31
6.44
6.56
6.82
7.28
7.8
8.18
8.19
7.76
7.02
6.14
5.37
4.75
4.24
3.61
2.74
1.58
0.26
-1.02
-2.08
-2.85
-3.39
-3.8
-4.19
-4.55
-4.88
-5.14
-5.37
-5.7
-6.26
-7.13
-8.14
-9.07
-9.61
-9.57
-8.94
-7.87
-6.64
-5.47
-4.44
-3.48
-2.45
-1.22
0.22
1.84
3.57
5.29
6.95
8.43
9.57
10.17
10.09
9.44
8.47
7.64
7.25
7.37
7.72
7.87
7.49
6.51
5.36
4.61
4.94
6.55
9.21
12.15
14.51
15.66
15.49
14.58
13.86
14.28
16.22
19.37
22.81
25.53
26.93
27.14
27.02
27.63
29.8
33.75
39.15
45.43
51.79
57.25
60.34
59.26
52.29
38.81
19.86
-1.93
-23.27
-41.76
-56.67
-69.02
-80.32
-91.34
-101.21
-108.02
-108.38000000000001
-107.53
-102.11
-96.72
-93.53
-92.63
-91.98
-88.55
-80.09
-66.54
-50.08
-34.11
-21.5
-13.33
-8.69
-5.34
-1.11
5.14
13.13
21.64
29.24
35.01
38.75
40.79
41.53
41.09
39.29
35.87
30.96
25.24
19.96
16.44
15.45
16.84
19.5
21.91
22.73
21.46
18.5
14.74
11.11
8.02
5.42
3.0
0.61
-1.58
-3.07
-3.38
-2.38
-0.31
2.21
4.46
5.83
5.98
4.81
2.39
-0.98
-4.85
-8.57
-11.43
-12.75
-12.2
-9.83
-6.22
-2.31
0.85
2.36
1.74
-1.06
-5.53
-10.94
-16.47
-21.45
-25.53
-28.56
-30.53
-31.38
-31.02
-29.21
-25.79
-20.75
-14.28
-6.85
0.91
8.34
14.98
20.62
25.36
29.47
33.21
36.73
39.87
42.38
43.93
44.35
43.72
42.28
40.38
38.31
36.31
34.41
32.71
31.21
29.95
28.92
28.1
27.38
26.66
25.86
24.91
23.83
22.6
21.19
19.52
17.51
15.18
12.63
10.08
7.66
5.48
3.47
1.38
-1.08
-4.46
-9.31
-16.27
-25.72
-37.68
-51.54
-66.1
-79.77
-90.8
-97.7
-99.54
-96.22
-88.55
-78.17
-67.2
-57.74
-51.31
-48.5
-48.97
-51.67
-55.34
-58.86
-61.36
-62.3
-61.37
-58.59
-54.33
-49.34
-44.52
-40.5
-37.46
-34.87
-31.79
-27.14
-20.08
-10.08
2.95
18.69
36.37
54.63
71.61
85.18
93.38
94.78
88.96
76.52
59.06
38.74
17.88
-1.57
-18.22
-31.28
-40.39
-45.47
-46.48
-43.58
-37.19
-28.13
-17.59
-6.91
2.78
10.88
17.34
22.58
27.03
30.98
34.39
37.04
38.78
39.75
40.36
41.1
42.21
43.47
44.31
44.1
42.58
40.01
37.07
34.45
32.46
30.91
29.21
26.76
23.28
18.93
14.21
9.67
5.73
2.58
0.24
-1.43
-2.56
-3.4
-4.3
-5.62
-7.7
-10.62
-14.14
-17.66
-20.44
-21.75
-21.2
-18.87
-15.2
-10.96
-6.87
-3.41
-0.75
1.28
3.0
4.72
6.58
8.6
10.71
12.81
14.78
16.53
17.91
18.78
19.0
18.52
17.38
15.65
13.55
11.29
9.11
7.25
5.8
4.75
3.85
2.81
1.34
-0.63
-2.91
-5.11
-6.74
-7.57
-7.61
-7.27
-7.1
-7.63
-9.02
-10.93
-12.66
-13.28
-12.14
-9.0
-4.28
1.23
6.53
10.85
13.8
15.42
16.11
16.27
16.3
16.35
16.47
16.55
16.46
16.03
15.11
13.55
11.31
8.52
5.5
2.66
0.46
-0.97
-1.76
-2.4
-3.43
-5.25
-7.89
-11.0
-14.1
-16.66
-18.41
-19.31
-19.58
-19.53
-19.44
-19.52
-19.84
-20.33
-20.8
-20.94
-20.34
-18.59
-15.43
-10.85
-5.2
0.88
6.68
11.67
15.63
18.65
21.02
22.99
24.66
26.02
27.0
27.62
28.05
28.5
29.15
30.03
30.89
31.32
30.8
28.98
25.77
21.45
16.51
11.42
6.45
1.55
-3.45
-8.68
-14.0
-19.04
-23.36
-26.67
-29.05
-30.9
-32.78
-35.05
-37.67
-40.14
-41.69
-41.64
-39.68
-36.07
-31.38
-26.31
-21.29
-16.35
-11.21
-5.5
0.93
7.94
15.06
21.64
27.05
30.83
32.79
33.06
32.07
30.34
28.36
26.44
24.75
23.31
22.12
21.22
20.56
20.02
19.33
18.27
16.67
14.69
12.61
10.78
9.38
8.3
7.33
6.15
4.6
2.64
0.4
-1.94
-4.17
-6.05
-7.38
-7.9
-7.44
-5.98
-3.69
-0.93
1.85
4.27
6.17
7.53
8.52
9.28
9.87
10.25
10.34
10.12
9.59
8.92
8.17
7.53
7.04
6.74
6.55
6.31
5.88
5.11
4.03
2.75
1.5
0.48
-0.27
-0.82
-1.43
-2.27
-3.46
-4.88
-6.29
-7.41
-8.03
-8.15
-7.85
-7.29
-6.52
-5.54
-4.26
-2.7
-1.08
0.26
0.88
0.61
-0.46
-1.86
-3.02
-3.43
-2.9
-1.62
-0.0
1.43
2.34
2.58
2.22
1.43
0.31
-1.08
-2.74
-4.61
-6.53
-8.24
-9.51
-10.27
-10.66
-11.02
-11.74
-13.12
-15.23
-17.92
-20.8
-23.42
-25.35
-26.29
-26.11
-24.76
-22.31
-18.87
-14.65
-9.94
-5.13
-0.61
3.27
6.23
8.27
9.47
10.1
10.42
10.63
10.8
10.93
10.98
10.9
10.75
10.6
10.52
10.49
10.41
10.17
9.68
8.95
8.03
7.11
6.31
5.8
5.62
5.7
5.79
5.43
4.25
2.06
-0.89
-4.01
-6.55
-7.87
-7.7
-6.11
-3.41
0.06
3.93
7.98
11.93
15.54
18.63
21.06
22.82
23.95
24.52
24.59
24.19
23.34
22.08
20.53
18.72
16.72
14.57
12.26
9.75
6.96
3.89
0.59
-2.78
-6.06
-9.07
-11.7
-13.96
-15.91
-17.72
-19.5
-21.36
-23.21
-24.83
-25.95
-26.14
-25.13
-22.77
-19.16
-14.64
-9.75
-5.07
-1.11
1.76
3.41
3.89
3.5
2.59
1.57
0.74
0.21
-0.07
-0.31
-0.77
-1.67
-3.04
-4.77
-6.57
-8.11
-9.19
-9.78
-10.06
-10.31
-10.81
-11.72
-13.03
-14.55
-16.09
-17.47
-18.57
-19.3
-19.45
-18.66
-16.54
-12.88
-7.99
-2.73
1.71
4.45
5.25
4.82
4.57
5.87
9.52
15.4
22.52
29.42
34.71
37.15
35.82
30.25
20.49
7.35
-7.4
-21.23
-31.42
-35.92
-34.1
-26.96
-16.79
-6.35
2.14
7.51
9.7
9.36
7.34
4.43
1.22
-1.71
-3.79
-4.51
-3.63
-1.43
1.39
3.93
5.45
5.69
4.93
3.79
3.01
3.14
4.38
6.59
9.4
12.51
15.69
18.87
22.07
25.25
28.3
30.96
33.02
34.22
34.38
33.27
30.73
26.7
21.31
15.13
8.99
3.85
0.41
-1.13
-1.26
-0.93
-1.15
-2.65
-5.43
-8.88
-11.99
-13.87
-14.1
-12.84
-10.69
-8.25
-5.9
-3.64
-1.5
0.33
1.28
0.66
-1.86
-5.92
-10.41
-13.86
-15.01
-13.41
-9.49
-4.23
1.33
6.47
10.93
14.74
17.86
20.17
21.43
21.53
20.7
19.39
18.09
17.07
16.25
15.26
13.8
11.84
9.8
8.38
8.24
9.63
12.28
15.45
18.24
19.93
20.24
19.41
18.04
16.81
16.18
16.28
16.81
17.13
16.46
14.08
9.54
2.74
-5.9
-15.57
-25.07
-33.2
-39.01
-41.99
-42.33
-40.75
-38.29
-35.94
-34.33
-33.48
-32.95
-32.04
-30.24
-27.43
-23.97
-20.47
-17.45
-15.15
-13.38
-11.78
-10.04
-8.06
-6.0
-4.04
-2.29
-0.64
1.03
2.71
4.16
4.93
4.62
2.98
0.18
-3.25
-6.53
-8.78
-9.32
-7.76
-4.25
0.71
6.22
11.39
15.45
17.99
18.92
18.4
16.76
14.41
11.87
9.53
7.74
6.53
5.68
4.82
3.65
2.14
0.61
-0.34
-0.18
1.33
4.08
7.57
11.24
14.6
17.36
19.42
20.78
21.38
21.15
20.05
18.11
15.52
12.51
9.41
6.55
4.38
3.4
4.08
6.62
10.65
15.28
19.24
21.39
21.05
18.21
13.38
7.31
0.66
-6.13
-12.72
-18.76
-23.88
-27.76
-30.36
-31.92
-33.01
-34.22
-35.99
-38.43
-41.35
-44.41
-47.27
-49.66
-51.33
-52.15
-51.95
-50.64
-48.29
-45.11
-41.4
-37.48
-33.69
-30.25
-27.39
-25.24
-23.78
-22.79
-21.78
-20.14
-17.24
-12.81
-6.99
-0.39
6.14
11.85
16.2
19.05
20.46
20.64
19.76
18.0
15.61
12.9
10.3
8.13
6.64
5.78
5.3
4.88
4.28
3.48
2.58
1.8
1.27
1.03
0.96
0.86
0.57
0.06
-0.55
-1.13
-1.51
-1.77
-2.11
-2.8
-4.07
-5.94
-8.2
-10.46
-12.29
-13.35
-13.48
-12.72
-11.24
-9.29
-7.13
-4.95
-2.89
-1.02
0.61
2.0
3.12
4.04
4.86
5.74
6.87
8.33
10.04
11.73
13.04
13.71
13.73
13.27
12.65
12.12
11.74
11.4
10.91
10.21
9.37
8.66
8.35
8.57
9.21
9.96
10.43
10.35
9.64
8.41
6.86
5.18
3.51
1.91
0.44
-0.89
-2.02
-2.99
-3.9
-4.92
-6.21
-7.73
-9.3
-10.55
-11.14
-10.88
-9.86
-8.34
-6.65
-4.99
-3.39
-1.74
0.03
1.91
3.79
5.49
6.9
7.96
8.74
9.3
9.65
9.83
9.86
9.78
9.59
9.37
9.18
9.03
8.98
9.0
9.02
8.88
8.43
7.58
6.42
5.15
3.98
3.03
2.3
1.75
1.31
0.97
0.69
0.41
-0.03
-0.81
-2.03
-3.6
-5.27
-6.75
-7.84
-8.54
-9.01
-9.48
-10.11
-10.93
-11.85
-12.63
-13.06
-12.99
-12.36
-11.24
-9.8
-8.18
-6.55
-4.95
-3.39
-1.86
-0.42
0.85
1.87
2.63
3.27
3.97
4.88
5.92
6.89
7.46
7.43
6.79
5.85
5.0
4.53
4.57
4.96
5.45
5.82
5.99
5.96
5.81
5.55
5.13
4.57
3.91
3.28
2.85
2.7
2.85
3.18
3.64
4.22
5.02
6.14
7.65
9.43
11.2
12.63
13.39
13.41
12.76
11.75
10.7
9.82
9.16
8.58
7.85
6.82
5.46
3.89
2.29
0.87
-0.25
-0.98
-1.3
-1.2
-0.71
0.13
1.15
2.12
2.72
2.68
1.92
0.6
-0.92
-2.25
-3.17
-3.7
-4.14
-4.77
-5.76
-6.97
-8.04
-8.63
-8.65
-8.37
-8.26
-8.82
-10.31
-12.67
-15.51
-18.36
-20.85
-22.72
-23.92
-24.4
-24.18
-23.24
-21.65
-19.51
-17.01
-14.35
-11.66
-9.08
-6.69
-4.54
-2.62
-0.85
0.86
2.67
4.56
6.47
8.2
9.49
10.15
10.1
9.46
8.43
7.34
6.48
6.13
6.45
7.47
9.07
10.95
12.79
14.22
15.0
14.99
14.26
12.94
11.22
9.24
7.08
4.8
2.51
0.39
-1.43
-2.87
-4.02
-5.12
-6.33
-7.72
-9.04
-9.88
-9.79
-8.45
-5.8
-1.97
2.7
7.79
12.69
16.75
19.25
19.68
17.94
14.42
9.98
5.66
2.39
0.69
0.63
1.9
3.95
6.32
8.61
10.61
12.21
13.35
13.97
14.02
13.5
12.41
10.88
9.06
7.07
5.02
2.92
0.75
-1.47
-3.66
-5.69
-7.44
-8.83
-9.89
-10.78
-11.73
-12.93
-14.51
-16.43
-18.53
-20.43
-21.69
-21.89
-20.71
-18.21
-14.68
-10.62
-6.51
-2.67
0.74
3.74
6.27
8.25
9.52
10.02
9.85
9.29
8.73
8.54
8.93
9.91
11.34
12.95
14.56
16.01
17.3
18.47
19.55
20.48
21.13
21.33
20.92
19.89
18.33
16.49
14.69
13.24
12.34
11.96
11.82
11.48
10.48
8.6
5.92
2.84
-0.13
-2.56
-4.34
-5.62
-6.81
-8.25
-10.07
-12.06
-13.78
-14.71
-14.51
-13.24
-11.3
-9.34
-7.95
-7.49
-7.86
-8.71
-9.57
-10.16
-10.44
-10.68
-11.18
-12.13
-13.47
-14.91
-16.06
-16.65
-16.63
-16.05
-15.1
-13.98
-12.91
-12.1
-11.79
-12.15
-13.2
-14.75
-16.32
-17.34
-17.3
-16.06
-13.91
-11.52
-9.75
-9.23
-10.19
-12.25
-14.75
-16.95
-18.5
-19.48
-20.34
-21.54
-23.33
-25.65
-28.25
-30.87
-33.3
-35.34
-36.77
-37.2
-36.25
-33.67
-29.54
-24.23
-18.26
-12.08
-5.91
0.16
6.1
11.89
17.44
22.71
27.68
32.27
36.3
39.43
41.2
41.29
39.65
36.65
33.0
29.43
26.45
24.24
22.65
21.4
20.27
19.12
17.91
16.69
15.48
14.34
13.3
12.32
11.24
9.83
7.94
5.56
2.98
0.62
-1.15
-2.33
-3.2
-4.21
-5.61
-7.31
-8.89
-9.79
-9.72
-8.73
-7.12
-5.27
-3.3
-1.09
1.59
4.82
8.36
11.67
14.1
15.21
14.98
13.78
12.16
10.55
9.02
7.3
5.0
2.01
-1.4
-4.66
-7.14
-8.56
-9.09
-9.31
-9.81
-10.94
-12.57
-14.25
-15.55
-16.18
-16.27
-16.16
-16.26
-16.87
-18.1
-19.95
-22.3
-24.98
-27.61
-29.63
-30.34
-29.13
-25.75
-20.42
-13.83
-6.94
-0.74
4.13
7.41
9.21
9.95
10.14
10.23
10.57
11.32
12.46
13.86
15.23
16.25
16.52
15.76
13.85
10.93
7.47
4.04
1.18
-0.89
-2.3
-3.41
-4.57
-5.93
-7.44
-8.82
-9.92
-10.73
-11.48
-12.45
-13.84
-15.68
-17.81
-19.93
-21.63
-22.49
-22.14
-20.35
-17.13
-12.71
-7.53
-2.1
3.13
7.84
11.81
14.9
17.12
18.48
19.19
19.49
19.6
19.72
19.9
20.16
20.51
21.02
21.7
22.5
23.22
23.53
23.22
22.16
20.46
18.36
16.12
13.89
11.69
9.5
7.26
5.0
2.77
0.6
-1.6
-4.01
-6.77
-9.98
-13.44
-16.68
-19.01
-19.74
-18.42
-15.13
-10.42
-5.23
-0.48
3.28
6.0
8.09
10.11
12.51
15.4
18.52
21.5
23.9
25.49
26.17
26.09
25.42
24.44
23.39
22.38
21.45
20.51
19.43
18.03
16.22
13.99
11.48
9.01
6.97
5.73
5.48
6.12
7.3
8.58
9.55
9.99
9.89
9.37
8.54
7.4
5.95
4.2
2.21
0.12
-1.99
-4.02
-5.91
-7.58
-8.93
-9.87
-10.3
-10.19
-9.44
-8.05
-6.02
-3.56
-0.96
1.35
3.05
4.07
4.55
4.81
5.1
5.5
5.89
6.09
5.95
5.45
4.65
3.62
2.38
0.98
-0.45
-1.72
-2.69
-3.32
-3.74
-4.11
-4.53
-4.93
-5.12
-4.94
-4.37
-3.61
-3.04
-3.03
-3.77
-5.21
-7.05
-8.86
-10.24
-10.89
-10.74
-9.9
-8.54
-6.83
-4.93
-2.99
-1.19
0.18
0.97
1.08
0.68
0.05
-0.41
-0.41
0.16
1.22
2.49
3.67
4.47
4.8
4.68
4.28
3.79
3.28
2.78
2.17
1.41
0.5
-0.43
-1.25
-1.87
-2.33
-2.74
-3.16
-3.68
-4.18
-4.6
-4.89
-5.09
-5.36
-5.77
-6.37
-7.03
-7.57
-7.76
-7.49
-6.74
-5.64
-4.36
-3.07
-1.92
-0.97
-0.23
0.36
0.86
1.34
1.86
2.36
2.85
3.26
3.68
4.16
4.79
5.57
6.4
7.21
7.85
8.34
8.67
8.93
9.1
9.05
8.65
7.81
6.63
5.4
4.51
4.13
4.16
4.12
3.3
1.11
-2.69
-7.78
-13.45
-18.79
-23.04
-25.84
-27.15
-27.23
-26.38
-24.83
-22.69
-20.04
-16.97
-13.68
-10.43
-7.43
-4.84
-2.56
-0.47
1.6
3.71
5.72
7.4
8.55
9.11
9.2
9.12
9.1
9.29
9.61
9.91
9.93
9.6
9.02
8.42
8.03
7.97
8.04
7.96
7.46
6.4
4.95
3.39
1.91
0.58
-0.66
-1.91
-3.12
-4.17
-4.97
-5.58
-6.22
-7.15
-8.58
-10.42
-12.35
-13.92
-14.72
-14.52
-13.36
-11.52
-9.41
-7.4
-5.7
-4.23
-2.78
-1.09
0.97
3.31
5.72
7.92
9.79
11.33
12.62
13.72
14.59
15.11
15.2
14.8
14.05
13.16
12.36
11.79
11.43
11.14
10.69
9.96
8.91
7.61
6.18
4.74
3.3
1.88
0.49
-0.85
-2.01
-2.87
-3.33
-3.42
-3.24
-3.07
-3.15
-3.67
-4.67
-6.03
-7.5
-8.84
-9.94
-10.84
-11.68
-12.59
-13.54
-14.35
-14.69
-14.37
-13.31
-11.71
-9.85
-8.04
-6.49
-5.23
-4.21
-3.3
-2.38
-1.4
-0.37
0.64
1.56
2.28
2.83
3.18
3.48
3.83
4.36
5.14
6.15
7.31
8.47
9.47
10.14
10.39
10.2
9.65
8.95
8.23
7.6
7.02
6.4
5.6
4.66
3.67
2.74
1.99
1.38
0.78
0.07
-0.76
-1.66
-2.5
-3.13
-3.55
-3.8
-4.08
-4.53
-5.3
-6.45
-8.01
-9.85
-11.77
-13.5
-14.69
-15.06
-14.48
-13.03
-10.95
-8.62
-6.41
-4.58
-3.27
-2.38
-1.78
-1.31
-0.87
-0.42
0.07
0.62
1.28
2.06
3.01
4.1
5.27
6.45
7.46
8.15
8.35
7.98
7.05
5.78
4.43
3.28
2.49
2.07
1.91
1.87
1.82
1.71
1.56
1.42
1.29
1.19
1.12
1.03
0.89
0.71
0.47
0.22
-0.01
-0.19
-0.31
-0.48
-0.82
-1.39
-2.2
-3.08
-3.81
-4.15
-3.93
-3.01
-1.4
0.82
3.46
6.25
8.75
10.52
11.18
10.56
8.87
6.56
4.23
2.45
1.49
1.36
1.75
2.24
2.45
2.26
1.77
1.26
1.07
1.34
2.04
2.9
3.65
4.0
3.79
2.97
1.56
-0.31
-2.51
-4.88
-7.25
-9.49
-11.62
-13.74
-15.99
-18.46
-21.05
-23.52
-25.62
-27.23
-28.49
-29.73
-31.34
-33.39
-35.59
-37.19
-37.29
-35.12
-30.39
-23.39
-14.87
-5.9
2.45
9.23
13.87
16.16
16.31
14.94
12.86
10.91
9.67
9.42
10.03
11.16
12.39
13.31
13.66
13.21
11.86
9.61
6.67
3.44
0.48
-1.76
-3.01
-3.3
-2.98
-2.45
-2.12
-2.17
-2.56
-3.08
-3.5
-3.66
-3.48
-3.01
-2.32
-1.5
-0.69
-0.03
0.29
0.07
-0.86
-2.51
-4.78
-7.37
-9.89
-12.02
-13.54
-14.41
-14.67
-14.4
-13.69
-12.7
-11.58
-10.43
-9.32
-8.13
-6.62
-4.57
-1.92
1.19
4.41
7.34
9.77
11.73
13.38
14.83
16.06
16.87
17.09
16.63
15.64
14.36
13.04
11.84
10.78
9.72
8.51
6.97
4.95
2.42
-0.5
-3.59
-6.42
-8.62
-9.91
-10.19
-9.6
-8.5
-7.32
-6.55
-6.6
-7.64
-9.61
-12.09
-14.44
-15.97
-16.17
-14.8
-12.0
-8.15
-3.75
0.71
4.82
8.24
10.79
12.46
13.37
13.7
13.61
13.17
12.44
11.45
10.34
9.31
8.61
8.35
8.42
8.58
8.52
8.02
7.05
5.7
4.12
2.45
0.82
-0.78
-2.31
-3.82
-5.29
-6.74
-8.24
-9.92
-11.9
-14.19
-16.54
-18.5
-19.5
-19.07
-17.09
-13.82
-9.84
-5.87
-2.45
0.19
2.1
3.52
4.71
5.89
7.09
8.15
8.68
8.31
6.7
3.98
0.59
-2.66
-5.01
-6.02
-5.78
-4.83
-3.82
-3.27
-3.36
-3.94
-4.77
-5.65
-6.57
-7.62
-8.92
-10.45
-12.13
-13.93
-15.9
-18.23
-21.05
-24.28
-27.43
-29.79
-30.58
-29.28
-25.87
-20.85
-15.06
-9.4
-4.52
-0.66
2.3
4.71
6.89
8.97
10.94
12.64
13.98
14.93
15.59
16.04
16.25
16.09
15.33
13.85
11.66
9.0
6.19
3.48
0.97
-1.41
-3.8
-6.26
-8.75
-11.26
-13.78
-16.45
-19.52
-23.21
-27.59
-32.4
-37.07
-40.8
-42.81
-42.55
-39.84
-34.91
-28.28
-20.59
-12.41
-4.16
3.9
11.6
18.75
25.24
30.98
35.98
40.22
43.61
45.93
46.91
46.41
44.47
41.44
37.83
34.21
31.0
28.39
26.32
24.49
22.57
20.14
16.88
12.59
7.27
1.11
-5.51
-12.11
-18.28
-23.72
-28.47
-32.73
-36.86
-41.1
-45.39
-49.22
-51.7
-51.8
-48.72
-42.24
-32.75
-21.24
-8.96
2.96
13.68
22.8
30.18
35.91
40.03
42.63
43.87
44.04
43.66
43.23
43.19
43.63
44.34
44.88
44.76
43.77
42.02
39.86
37.7
35.72
33.82
31.69
29.04
25.86
22.46
19.35
16.95
15.27
13.83
11.91
8.85
4.37
-1.32
-7.61
-13.83
-19.46
-24.31
-28.52
-32.48
-36.68
-41.56
-47.41
-54.08
-60.91
-66.62
-69.45
-67.67
-60.1
-46.7
-28.71
-8.49
11.17
27.75
39.75
46.96
50.28
51.19
51.13
50.99
50.97
50.78
49.97
48.23
45.61
42.29
38.45
34.07
29.02
23.2
16.83
10.53
5.11
1.28
-0.79
-1.46
-1.54
-1.86
-2.88
-4.54
-6.34
-7.68
-8.16
-7.83
-7.1
-6.52
-6.55
-7.33
-8.76
-10.55
-12.51
-14.52
-16.55
-18.59
-20.52
-22.16
-23.39
-24.24
-24.92
-25.78
-27.15
-29.25
-32.01
-35.1
-37.99
-39.96
-40.41
-38.89
-35.37
-30.22
-24.06
-17.6
-11.33
-5.46
0.05
5.29
10.18
14.54
18.06
20.59
22.13
22.92
23.17
23.12
22.88
22.48
21.98
21.37
20.69
19.87
18.78
17.28
15.29
12.85
10.08
7.21
4.37
1.75
-0.66
-2.96
-5.33
-7.94
-10.9
-14.07
-17.16
-19.84
-21.82
-23.07
-23.84
-24.61
-25.95
-28.34
-31.88
-36.19
-40.45
-43.58
-44.56
-42.81
-38.34
-31.7
-23.78
-15.43
-7.25
0.46
7.58
14.03
19.61
24.13
27.46
29.63
30.92
31.62
32.01
32.18
32.05
31.45
30.3
28.65
26.76
24.92
23.38
22.24
21.35
20.53
19.52
18.18
16.46
14.32
11.73
8.57
4.81
0.53
-3.99
-8.38
-12.34
-15.78
-18.85
-21.8
-24.88
-28.12
-31.49
-34.9
-38.33
-41.81
-45.17
-48.01
-49.59
-49.23
-46.45
-41.41
-34.78
-27.55
-20.67
-14.63
-9.44
-4.73
-0.05
4.84
9.87
14.64
18.75
21.83
23.88
25.1
25.88
26.49
26.98
27.19
26.84
25.76
24.04
22.03
20.15
18.67
17.5
16.25
14.39
11.56
7.79
3.43
-0.96
-4.92
-8.3
-11.19
-13.87
-16.62
-19.6
-22.74
-25.9
-28.95
-31.82
-34.59
-37.46
-40.73
-44.71
-49.6
-55.41
-61.81
-68.21
-73.67
-77.16
-77.69
-74.66
-67.94
-58.05
-46.01
-33.09
-20.54
-9.24
0.32
8.09
14.14
18.6
21.62
23.37
24.24
24.79
25.68
27.37
29.93
32.94
35.54
36.89
36.45
34.46
31.82
29.81
29.56
31.47
35.07
39.2
42.56
44.29
44.21
42.8
40.73
38.56
36.45
34.29
31.83
28.94
25.59
21.88
17.9
13.68
9.31
4.85
0.4
-4.01
-8.48
-13.29
-18.74
-25.02
-32.04
-39.21
-45.5
-49.59
-50.26
-46.75
-39.08
-28.12
-15.36
-2.54
8.95
18.19
24.97
29.54
32.34
33.91
34.66
35.0
35.27
35.78
36.71
38.17
40.04
42.03
43.83
45.08
45.53
45.03
43.54
41.18
38.09
34.5
30.61
26.63
22.75
19.25
16.45
14.61
13.9
14.21
15.18
16.23
16.75
16.32
14.86
12.6
9.98
7.43
5.12
2.98
0.73
-1.9
-5.14
-8.97
-13.27
-17.79
-22.26
-26.34
-29.64
-31.67
-31.98
-30.19
-26.23
-20.35
-13.15
-5.36
2.2
8.97
14.64
19.13
22.53
24.93
26.52
27.42
27.84
27.91
27.75
27.45
27.05
26.6
26.21
25.95
25.84
25.78
25.62
25.16
24.32
23.12
21.7
20.2
18.73
17.31
15.91
14.45
12.85
11.05
9.04
6.9
4.69
2.56
0.56
-1.26
-2.87
-4.33
-5.77
-7.56
-10.14
-13.87
-18.74
-24.08
-28.71
-31.28
-30.82
-27.1
-20.77
-12.94
-4.78
2.85
9.41
14.54
18.0
19.61
19.36
17.58
14.91
12.12
9.81
8.28
7.53
7.33
7.41
7.58
7.72
7.8
7.84
7.81
7.69
7.37
6.78
5.88
4.63
3.06
1.2
-0.84
-2.98
-5.12
-7.18
-9.11
-10.9
-12.59
-14.26
-16.04
-18.01
-20.22
-22.66
-25.22
-27.75
-30.06
-31.94
-33.12
-33.3
-32.1
-29.24
-24.58
-18.26
-10.81
-3.02
4.28
10.37
14.79
17.41
18.28
17.59
15.66
12.87
9.68
6.63
4.2
2.74
2.36
2.92
4.07
5.47
6.77
7.77
8.39
8.59
8.39
7.76
6.68
5.14
3.15
0.72
-2.11
-5.31
-8.8
-12.44
-16.05
-19.33
-22.08
-24.08
-25.38
-26.16
-26.81
-27.77
-29.32
-31.47
-33.79
-35.57
-35.98
-34.4
-30.67
-25.06
-18.3
-11.14
-4.32
1.75
6.83
10.9
13.99
16.13
17.38
17.78
17.54
16.9
16.22
15.75
15.65
15.83
16.01
15.89
15.19
13.88
12.13
10.19
8.25
6.22
3.87
0.93
-2.69
-6.81
-11.04
-14.94
-18.26
-21.08
-23.81
-26.93
-30.9
-35.83
-41.52
-47.46
-52.88
-56.87
-58.55
-57.26
-52.74
-45.32
-35.89
-25.71
-16.01
-7.64
-0.95
4.33
8.63
12.37
15.69
18.47
20.49
21.56
21.72
21.14
20.13
18.9
17.56
16.08
14.41
12.44
10.14
7.58
4.8
1.9
-1.08
-4.16
-7.35
-10.62
-13.95
-17.36
-20.9
-24.73
-29.12
-34.32
-40.46
-47.32
-54.28
-60.28
-64.13
-64.78
-61.72
-55.12
-45.75
-34.75
-23.22
-12.05
-1.8
7.21
14.77
20.79
25.35
28.69
31.17
33.13
34.71
35.86
36.42
36.31
35.66
34.7
33.75
33.0
32.37
31.57
30.11
27.6
23.83
18.87
13.07
6.92
0.81
-5.03
-10.67
-16.37
-22.53
-29.54
-37.63
-46.72
-56.23
-65.03
-71.6
-74.37
-72.28
-65.15
-53.83
-39.95
-25.38
-11.63
0.51
11.01
20.35
29.03
37.31
44.98
51.52
56.35
59.12
59.9
59.11
57.37
55.25
53.06
51.04
49.26
47.82
46.81
46.19
45.67
44.83
43.21
40.59
37.16
33.38
29.71
26.32
22.93
18.98
13.92
7.5
-0.12
-8.44
-16.89
-24.96
-32.42
-39.24
-45.72
-52.34
-59.69
-68.24
-77.99
-88.24
-97.47
-103.73
-105.23
-100.97
-91.14
-76.94
-60.29
-43.09
-26.78
-12.12
0.75
12.01
21.95
30.72
38.34
44.68
49.58
52.92
54.78
55.36
55.0
54.1
53.01
51.97
51.0
49.97
48.62
46.72
44.12
40.8
36.9
32.5
27.66
22.26
16.14
9.28
1.94
-5.38
-12.1
-17.86
-22.74
-27.17
-31.89
-37.58
-44.77
-53.67
-64.16
-75.66
-86.97
-96.39
-101.92
-101.85
-95.34
-82.81
-65.86
-46.67
-27.37
-9.4
6.61
20.67
32.97
43.52
52.09
58.35
62.14
63.7
63.67
62.96
62.4
62.47
63.16
64.1
64.72
64.54
63.3
61.06
58.09
54.78
51.52
48.51
45.78
43.15
40.3
36.98
33.06
28.57
23.61
18.24
12.39
5.81
-1.93
-11.41
-23.22
-37.58
-53.94
-70.45
-84.1
-91.28
-89.1
-76.53
-55.1
-28.68
-2.48
18.31
29.86
30.45
20.78
3.69
-16.45
-34.85
-47.49
-52.22
-49.19
-40.48
-29.04
-17.55
-7.53
0.68
7.49
13.45
18.8
23.49
27.47
30.84
33.82
36.59
39.06
40.97
41.96
41.91
41.04
39.99
39.45
39.9
41.34
43.28
44.92
45.44
44.39
41.77
38.09
34.07
30.43
27.59
25.49
23.73
21.71
18.92
15.1
10.36
5.07
-0.34
-5.44
-10.11
-14.43
-18.69
-23.13
-27.91
-32.96
-38.08
-43.1
-47.95
-52.82
-57.95
-63.69
-70.33
-78.05
-86.84
-96.2
-105.09
-108.38000000000001
-108.38000000000001
-108.38000000000001
-100.33
-84.15
-64.15
-43.08
-23.44
-6.8
6.46
16.87
25.34
32.67
39.3
45.37
50.87
55.85
60.37
64.56
68.43
71.87
74.76
77.06
78.96
80.75
82.74
84.96
87.01
88.26
87.99
85.86
82.04
77.26
72.45
68.43
65.51
63.42
61.51
59.04
55.52
50.9
45.56
40.04
34.85
30.11
25.57
20.73
15.02
8.18
0.29
-8.18
-16.6
-24.45
-31.53
-38.06
-44.53
-51.58
-59.7
-69.06
-79.29
-89.41
-97.86
-102.88
-102.98
-97.51
-86.91
-72.68
-56.91
-41.57
-27.95
-16.42
-6.68
1.85
9.54
16.47
22.48
27.43
31.42
34.76
37.83
40.83
43.67
45.99
47.44
47.91
47.68
47.31
47.41
48.36
50.15
52.29
54.04
54.66
53.59
50.7
46.27
41.09
36.3
33.3
33.23
36.6
42.9
50.48
56.84
59.13
54.98
43.17
24.09
-0.31
-27.01
-52.72
-74.77
-91.58
-102.83
-108.38000000000001
-108.38000000000001
-108.38000000000001
-108.38000000000001
-108.38000000000001
-108.38000000000001
-108.38000000000001
-108.38000000000001
-108.38000000000001
-103.76
-90.61
-73.75
-55.34
-37.76
-22.73
-10.86
-1.75
5.43
11.42
16.6
21.03
24.73
27.88
30.91
34.33
38.56
43.74
49.67
56.02
62.39
68.54
74.39
79.89
84.91
89.08
91.83
92.5
90.65
86.22
79.71
72.01
64.1
56.67
49.93
43.61
37.21
30.32
22.86
15.12
7.55
0.51
-5.89
-11.75
-17.31
-22.83
-28.57
-34.8
-41.86
-50.04
-59.43
-69.59
-79.44
-87.31
-91.36
-90.14
-83.11
-70.97
-55.42
-38.71
-22.88
-9.34
1.42
9.6
15.78
20.61
24.58
28.1
31.52
35.16
39.13
43.25
46.96
49.54
50.4
49.41
46.96
43.84
40.82
38.28
36.08
33.61
30.19
25.43
19.4
12.71
6.14
0.36
-4.35
-8.21
-11.73
-15.51
-19.88
-24.79
-29.93
-34.93
-39.65
-44.28
-49.27
-55.11
-62.14
-70.26
-78.94
-87.1
-93.3
-95.88
-93.46
-85.35
-72.02
-55.06
-36.88
-19.95
-6.07
4.08
10.91
15.46
18.82
21.71
24.34
26.6
28.33
29.54
30.36
30.95
31.38
31.6
31.55
31.25
30.86
30.61
30.7
31.15
31.74
32.14
31.97
30.95
28.93
25.85
21.71
16.59
10.69
4.38
-1.87
-7.63
-12.64
-16.97
-20.92
-24.87
-29.15
-33.97
-39.45
-45.6
-52.22
-58.64
-63.59
-65.4
-62.49
-54.13
-40.93
-24.81
-8.41
5.88
16.56
23.41
27.09
28.66
29.1
29.1
29.17
29.65
30.81
32.69
35.07
37.43
39.19
39.97
39.78
39.0
38.19
37.78
37.85
38.08
37.89
36.59
33.73
29.13
23.0
15.75
7.94
0.12
-7.24
-13.79
-19.32
-23.75
-27.26
-30.18
-33.01
-36.24
-40.23
-45.06
-50.33
-55.28
-58.78
-59.82
-57.66
-52.23
-44.14
-34.47
-24.45
-15.04
-6.87
-0.09
5.41
9.79
13.19
15.69
17.45
18.68
19.75
20.91
22.3
23.77
24.93
25.25
24.35
22.15
18.95
15.38
12.04
9.31
7.11
4.94
2.19
-1.63
-6.57
-12.38
-18.54
-24.63
-30.46
-36.15
-41.96
-48.17
-54.89
-62.04
-69.41
-76.52
-82.71
-87.0
-88.35
-85.9
-79.28
-68.99
-56.18
-42.48
-29.31
-17.66
-7.81
0.39
7.23
12.91
17.4
20.63
22.53
23.22
22.93
21.93
20.56
19.01
17.48
16.01
14.55
12.94
10.99
8.56
5.65
2.44
-0.9
-4.24
-7.65
-11.33
-15.54
-20.53
-26.46
-33.48
-41.51
-50.17
-58.56
-65.25
-68.54
-67.02
-60.12
-48.43
-33.69
-18.1
-3.7
8.26
17.43
24.12
28.9
32.23
34.36
35.38
35.45
34.82
33.81
32.68
31.55
30.43
29.24
28.0
26.69
25.27
23.53
21.2
18.03
13.99
9.32
4.42
-0.26
-4.49
-8.36
-12.2
-16.54
-21.94
-28.88
-37.46
-47.26
-57.07
-65.05
-69.16
-67.77
-60.34
-47.66
-31.67
-14.74
0.99
14.2
24.58
32.47
38.53
43.26
46.92
49.57
51.31
52.27
52.69
52.76
52.52
51.83
50.44
48.19
45.2
41.77
38.29
34.96
31.7
28.08
23.62
18.03
11.37
4.09
-3.2
-10.03
-16.26
-22.13
-28.23
-35.26
-43.77
-53.84
-64.78
-75.16
-82.92
-86.03
-83.1
-74.01
-59.94
-43.07
-25.82
-10.05
3.37
14.42
23.6
31.37
37.94
43.23
47.17
49.74
51.15
51.71
51.67
51.14
50.13
48.59
46.54
44.16
41.76
39.65
38.07
36.97
36.06
34.7
32.24
28.2
22.54
15.71
8.52
1.82
-3.92
-8.69
-13.1
-18.02
-24.36
-32.73
-43.19
-55.03
-66.72
-76.16
-81.05
-79.64
-71.33
-57.04
-38.95
-19.88
-2.33
12.24
23.57
32.33
39.45
45.59
50.9
55.07
57.82
58.98
58.8
57.69
56.17
54.51
52.74
50.69
48.14
45.06
41.65
38.31
35.37
32.92
30.68
28.06
24.37
19.14
12.32
4.21
-4.57
-13.44
-21.97
-29.99
-37.53
-44.77
-51.93
-59.25
-67.01
-75.48
-84.86
-94.95
-104.91
-108.38000000000001
-108.38000000000001
-108.38000000000001
-108.38000000000001
-94.58
-75.1
-53.02
-30.96
-10.87
6.29
20.59
32.62
43.0
52.04
59.67
65.75
70.2
73.25
75.27
76.62
77.44
77.68
77.23
76.1
74.57
73.01
71.78
70.91
70.16
69.06
67.21
64.42
60.76
56.51
51.87
46.99
41.8
36.17
30.0
23.24
16.05
8.68
1.37
-5.75
-12.62
-19.4
-26.41
-34.06
-42.77
-52.7
-63.41
-73.75
-81.91
-85.86
-84.09
-76.23
-63.34
-47.69
-31.93
-18.35
-8.13
-1.36
2.65
4.8
5.75
5.84
5.2
4.03
2.72
1.75
1.47
1.94
2.82
3.63
4.01
3.84
3.36
2.99
3.07
3.75
4.96
6.45
7.97
9.35
10.49
11.37
12.02
12.47
12.74
12.89
12.91
12.71
12.09
10.8
8.5
5.06
0.51
-4.78
-10.25
-15.31
-19.57
-22.97
-25.91
-29.03
-33.04
-38.56
-45.82
-54.56
-63.8
-71.91
-76.87
-76.85
-70.83
-59.09
-43.25
-25.61
-8.48
6.56
19.02
29.08
37.28
43.9
49.01
52.47
54.34
54.95
54.79
54.33
53.81
53.31
52.75
52.14
51.55
51.1
50.89
50.79
50.62
50.11
49.17
47.82
46.23
44.57
42.9
41.19
39.22
36.85
33.88
30.34
26.36
22.13
17.81
13.38
8.75
3.75
-1.68
-7.42
-13.14
-18.5
-23.27
-27.38
-31.14
-34.93
-39.27
-44.56
-50.97
-58.35
-66.1
-73.17
-78.16
-79.68
-76.69
-68.96
-57.11
-42.58
-27.14
-12.46
0.32
10.73
18.84
25.08
29.94
33.8
36.86
39.18
40.8
41.79
42.25
42.28
41.9
41.06
39.63
37.61
35.1
32.45
29.96
27.9
26.27
24.77
22.97
20.45
17.04
12.79
8.03
3.12
-1.63
-6.05
-10.16
-14.03
-17.81
-21.65
-25.73
-30.22
-35.33
-41.19
-47.75
-54.6
-60.85
-65.28
-66.53
-63.69
-56.59
-46.03
-33.55
-20.84
-9.32
0.37
8.22
14.63
20.03
24.55
28.14
30.66
32.18
32.96
33.48
34.18
35.27
36.65
37.84
38.24
37.34
35.01
31.5
27.44
23.52
20.2
17.67
15.64
13.59
10.94
7.26
2.47
-3.21
-9.3
-15.33
-20.93
-26.07
-30.96
-36.01
-41.62
-48.1
-55.54
-63.79
-72.18
-79.54
-84.28
-84.78
-79.98
-69.98
-56.03
-40.26
-24.96
-11.76
-1.23
6.98
13.73
19.79
25.51
30.83
35.55
39.54
42.92
45.92
48.71
51.23
53.2
54.16
53.75
51.83
48.62
44.59
40.28
36.13
32.31
28.73
25.12
21.19
16.8
11.97
6.87
1.68
-3.42
-8.39
-13.35
-18.53
-24.18
-30.56
-37.75
-45.77
-54.55
-63.94
-73.6
-82.82
-90.38
-94.65
-94.11
-87.92
-76.4
-61.06
-44.09
-27.59
-12.92
-0.49
9.95
18.82
26.3
32.27
36.56
39.21
40.6
41.27
41.74
42.23
42.73
43.07
43.15
42.95
42.59
42.14
41.52
40.57
38.93
36.41
33.0
28.99
24.78
20.78
17.12
13.58
9.78
5.26
-0.15
-6.3
-12.72
-18.81
-24.11
-28.45
-32.07
-35.55
-39.71
-45.32
-52.81
-61.96
-71.68
-80.14
-85.13
-84.73
-78.04
-65.6
-49.25
-31.6
-15.14
-1.5
8.83
16.34
21.92
26.38
30.11
33.21
35.7
37.63
39.19
40.53
41.64
42.24
41.93
40.3
37.14
32.54
26.88
20.79
14.95
9.97
6.13
3.31
1.02
-1.42
-4.54
-8.47
-12.85
-17.12
-20.77
-23.56
-25.63
-27.3
-28.96
-30.84
-33.13
-35.99
-39.62
-44.14
-49.2
-53.87
-56.74
-56.38
-51.92
-43.42
-31.97
-19.18
-6.62
4.62
14.13
22.0
28.48
33.71
37.73
40.55
42.4
43.6
44.59
45.6
46.59
47.27
47.21
46.18
44.19
41.59
38.87
36.46
34.45
32.64
30.61
27.91
24.27
19.67
14.38
8.76
3.22
-1.96
-6.81
-11.48
-16.35
-21.86
-28.45
-36.31
-45.29
-54.65
-63.04
-68.82
-70.39
-66.88
-58.47
-46.42
-32.68
-19.23
-7.57
1.68
8.59
13.62
17.26
19.81
21.4
22.15
22.31
22.22
22.24
22.52
22.95
23.13
22.63
21.2
18.85
15.99
13.15
10.79
9.06
7.74
6.33
4.26
1.21
-2.83
-7.51
-12.3
-16.7
-20.48
-23.75
-26.88
-30.43
-34.91
-40.65
-47.67
-55.59
-63.48
-70.0
-73.6
-72.94
-67.38
-57.29
-43.98
-29.32
-15.17
-2.8
7.36
15.52
22.28
28.12
33.29
37.71
41.18
43.55
44.86
45.38
45.47
45.43
45.31
44.96
44.04
42.28
39.64
36.42
33.04
29.89
27.09
24.4
21.37
17.52
12.65
6.92
0.81
-5.08
-10.31
-14.74
-18.57
-22.24
-26.24
-30.99
-36.76
-43.64
-51.38
-59.33
-66.32
-70.88
-71.64
-67.77
-59.4
-47.64
-34.22
-20.92
-8.98
1.01
9.09
15.57
20.7
24.59
27.29
28.9
29.76
30.33
30.98
31.88
32.83
33.45
33.27
32.11
30.15
27.83
25.69
24.04
22.8
21.45
19.37
16.1
11.56
6.17
0.58
-4.58
-9.0
-12.81
-16.53
-20.91
-26.62
-34.05
-43.07
-53.03
-62.7
-70.44
-74.58
-73.81
-67.72
-56.85
-42.76
-27.42
-12.7
0.19
10.85
19.44
26.45
32.16
36.69
39.96
42.05
43.21
43.86
44.46
45.23
46.13
46.78
46.73
45.59
43.24
39.94
36.19
32.59
29.5
26.95
24.47
21.46
17.41
12.13
5.97
-0.48
-6.57
-11.97
-16.7
-21.15
-25.82
-31.18
-37.55
-45.09
-53.8
-63.23
-72.55
-80.34
-84.88
-84.66
-78.9
-68.03
-53.52
-37.52
-22.02
-8.33
3.2
12.93
21.41
29.02
35.74
41.4
45.87
49.29
52.05
54.58
57.23
60.03
62.73
64.99
66.56
67.39
67.64
67.65
67.71
67.96
68.25
68.22
67.39
65.39
62.17
58.07
53.77
50.01
47.4
46.11
45.86
45.98
45.7
44.51
42.31
39.57
37.03
35.5
35.46
36.84
39.0
40.94
41.71
40.77
38.28
35.05
32.5
32.21
35.52
43.1
54.73
69.36
85.46
101.57
108.10000000000001
108.10000000000001
108.10000000000001
108.10000000000001
108.10000000000001
108.10000000000001
108.10000000000001
108.10000000000001
108.10000000000001
108.10000000000001
108.10000000000001
108.10000000000001
108.10000000000001
70.43
30.64
-5.27
-35.96
-60.92
-80.1
-93.69
-101.91
-104.96
-102.97
-96.1
-84.89
-70.38
-54.15
-37.94
-23.13
-10.37
0.28
9.06
16.03
20.92
23.43
23.62
22.24
20.52
19.71
20.5
22.71
25.56
28.05
29.42
29.29
27.48
23.9
18.43
11.03
1.99
-8.02
-18.03
-27.04
-34.28
-39.38
-42.34
-43.34
-42.7
-40.69
-37.61
-33.76
-29.45
-25.07
-21.0
-17.67
-15.4
-14.35
-14.47
-15.53
-17.24
-19.32
-21.62
-23.95
-26.11
-27.81
-28.79
-28.98
-28.61
-28.15
-28.17
-29.1
-31.09
-33.97
-37.38
-40.92
-44.34
-47.44
-50.07
-52.15
-53.6
-54.58
-55.5
-57.2
-60.76
-67.24
-77.27
-90.58
-106.08
-108.38000000000001
-108.38000000000001
-108.38000000000001
-108.38000000000001
-108.38000000000001
-108.38000000000001
-108.38000000000001
-108.38000000000001
-108.38000000000001
-108.38000000000001
-108.38000000000001
-108.38000000000001
-108.38000000000001
-104.16
-96.7
-86.5
-73.3
-58.02
-42.2
-27.47
-14.88
-4.72
3.26
9.6
14.88
19.77
25.04
31.62
40.32
51.52
64.99
79.83
94.72
108.10000000000001
108.10000000000001
108.10000000000001
108.10000000000001
108.10000000000001
108.10000000000001
108.10000000000001
108.10000000000001
103.24
93.4
82.46
70.28
56.96
42.96
29.05
16.07
4.68
-4.81
-12.56
-19.06
-24.93
-30.77
-36.86
-43.05
-48.77
-53.25
-55.77
-56.01
-54.16
-50.76
-46.64
-42.44
-38.58
-35.23
-32.37
-29.95
-27.9
-26.18
-24.65
-23.16
-21.58
-19.91
-18.25
-16.79
-15.68
-14.93
-14.43
-13.95
-13.35
-12.57
-11.65
-10.84
-10.41
-10.64
-11.65
-13.33
-15.36
-17.32
-18.85
-19.81
-20.33
-20.61
-20.81
-20.91
-20.78
-20.29
-19.48
-18.59
-17.94
-17.75
-18.02
-18.55
-19.06
-19.32
-19.25
-18.81
-18.05
-17.02
-15.83
-14.63
-13.69
-13.2
-13.19
-13.42
-13.45
-12.88
-11.48
-9.33
-6.72
-4.07
-1.72
0.13
1.44
2.26
2.64
2.67
2.4
1.91
1.36
0.84
0.48
0.28
0.22
0.16
-0.02
-0.41
-1.01
-1.67
-2.21
-2.45
-2.35
-1.98
-1.6
-1.43
-1.64
-2.32
-3.36
-4.53
-5.57
-6.22
-6.37
-6.11
-5.63
-5.2
-5.0
-5.05
-5.31
-5.7
-6.15
-6.69
-7.35
-8.14
-9.03
-9.97
-10.95
-11.99
-13.05
-14.01
-14.64
-14.62
-13.7
-11.87
-9.41
-6.77
-4.46
-2.79
-1.76
-1.18
-0.73
-0.18
0.52
1.27
1.9
2.24
2.21
1.8
1.06
0.11
-0.89
-1.75
-2.31
-2.51
-2.41
-2.12
-1.77
-1.5
-1.34
-1.32
-1.45
-1.72
-2.13
-2.63
-3.14
-3.58
-3.93
-4.16
-4.37
-4.66
-5.1
-5.7
-6.39
-7.16
-8.09
-9.26
-10.73
-12.36
-13.73
-14.33
-13.81
-12.1
-9.58
-6.81
-4.31
-2.32
-0.78
0.54
1.83
3.04
4.04
4.62
4.71
4.4
3.86
3.26
2.64
2.0
1.28
0.49
-0.35
-1.17
-1.94
-2.59
-3.09
-3.41
-3.47
-3.28
-2.95
-2.67
-2.68
-3.11
-3.96
-5.08
-6.2
-7.05
-7.5
-7.53
-7.24
-6.8
-6.37
-6.15
-6.33
-7.02
-8.21
-9.71
-11.13
-11.95
-11.8
-10.55
-8.46
-5.99
-3.63
-1.75
-0.35
0.77
1.89
3.2
4.68
6.18
7.51
8.54
9.18
9.44
9.31
8.83
8.11
7.26
6.46
5.79
5.31
4.99
4.82
4.81
4.97
5.29
5.75
6.24
6.66
6.96
7.04
6.86
6.37
5.5
4.28
2.82
1.34
0.05
-0.92
-1.62
-2.27
-3.22
-4.8
-7.15
-10.06
-12.94
-14.98
-15.45
-13.97
-10.74
-6.45
-2.02
1.75
4.5
6.36
7.76
9.1
10.56
12.05
13.37
14.37
15.08
15.6
16.05
16.56
17.33
18.71
21.12
24.78
29.47
34.46
38.61
40.78
40.21
36.79
30.98
23.59
15.51
7.61
0.74
-4.34
-7.07
-7.3
-5.41
-2.18
1.39
4.45
6.57
7.68
8.02
7.82
7.27
6.39
5.12
3.37
1.19
-1.34
-4.13
-7.03
-9.91
-12.57
-14.89
-16.77
-18.22
-19.4
-20.51
-21.78
-23.31
-25.1
-27.05
-29.04
-30.97
-32.79
-34.49
-35.92
-36.88
-37.11
-36.44
-34.82
-32.31
-29.07
-25.3
-21.37
-17.66
-14.62
-12.48
-11.26
-10.62
-10.11
-9.42
-8.56
-7.92
-7.95
-8.96
-10.77
-12.84
-14.49
-15.22
-14.96
-14.07
-13.14
-12.59
-12.63
-13.07
-13.54
-13.65
-13.13
-11.91
-10.04
-7.66
-4.88
-1.9
1.1
3.9
6.33
8.3
9.82
11.01
11.94
12.63
13.06
13.2
13.1
12.83
12.53
12.26
12.04
11.83
11.59
11.39
11.25
11.26
11.36
11.45
11.36
10.93
10.1
8.89
7.5
6.12
4.95
4.14
3.7
3.55
3.43
3.07
2.24
0.86
-0.89
-2.67
-4.13
-5.03
-5.33
-5.28
-5.24
-5.55
-6.36
-7.65
-9.09
-10.27
-10.77
-10.28
-8.75
-6.33
-3.36
-0.24
2.67
5.13
7.04
8.35
9.11
9.36
9.21
8.79
8.32
8.01
7.92
8.01
8.09
7.96
7.46
6.59
5.45
4.24
3.27
2.77
2.87
3.51
4.51
5.54
6.29
6.57
6.36
5.78
4.93
3.89
2.61
1.11
-0.56
-2.25
-3.72
-4.85
-5.54
-5.89
-5.97
-5.9
-5.78
-5.76
-6.06
-6.81
-8.07
-9.63
-11.11
-12.05
-12.14
-11.3
-9.7
-7.68
-5.51
-3.42
-1.45
0.35
1.96
3.24
4.07
4.37
4.2
3.74
3.24
2.93
2.94
3.21
3.64
3.98
4.08
3.84
3.3
2.58
1.86
1.28
0.9
0.68
0.52
0.33
0.03
-0.36
-0.74
-1.03
-1.19
-1.27
-1.42
-1.78
-2.4
-3.27
-4.28
-5.35
-6.41
-7.38
-8.15
-8.47
-8.12
-6.93
-4.9
-2.3
0.45
2.92
4.87
6.24
7.21
7.96
8.65
9.28
9.77
10.05
10.08
9.94
9.69
9.42
9.1
8.7
8.18
7.53
6.86
6.26
5.86
5.71
5.83
6.14
6.49
6.68
6.43
5.6
4.15
2.27
0.35
-1.21
-2.18
-2.61
-2.72
-2.92
-3.42
-4.26
-5.33
-6.42
-7.48
-8.46
-9.32
-9.89
-9.92
-9.15
-7.51
-5.18
-2.5
0.18
2.61
4.72
6.51
7.95
9.0
9.61
9.81
9.83
9.87
10.15
10.74
11.55
12.38
13.01
13.29
13.18
12.79
12.3
11.97
12.06
12.73
14.01
15.71
17.47
18.85
19.44
19.07
17.85
16.11
14.34
13.0
12.36
12.48
13.17
14.09
14.78
14.87
14.11
12.45
10.13
7.58
5.41
4.17
4.29
5.96
9.08
13.29
18.06
22.75
26.75
29.54
30.76
30.29
28.34
25.41
22.27
19.75
18.59
19.23
21.82
26.24
32.15
39.12
46.53
53.7
59.83
64.22
66.45
66.42
64.33
60.56
55.64
50.23
45.24
41.74
40.69
42.56
46.93
52.51
57.37
59.55
57.41
49.88
36.31
16.48
-9.26
-39.71
-72.5
-104.34
-108.38000000000001
-108.38000000000001
-108.38000000000001
-108.38000000000001
-108.38000000000001
-108.38000000000001
-108.38000000000001
-108.38000000000001
-108.38000000000001
-108.38000000000001
-108.38000000000001
-108.38000000000001
-107.31
-98.43
-90.79
-84.52
-79.48
-75.59
-72.77
-71.05
-70.38
-70.56
-71.32
-72.32
-73.39
-74.64
-76.49
-79.34
-83.24
-87.54
-90.69
-90.73
-85.77
-74.85
-58.31
-37.8
-15.79
5.26
23.42
37.76
48.05
54.6
57.83
58.1
55.7
50.96
44.43
36.72
28.63
20.84
14.01
8.62
5.07
3.68
4.59
7.71
12.58
18.52
24.63
30.15
34.63
37.94
40.3
42.04
43.46
44.71
45.78
46.51
46.66
46.02
44.48
42.09
39.04
35.6
31.95
28.25
24.55
20.85
17.22
13.77
10.7
8.13
6.11
4.52
3.16
1.92
0.77
-0.19
-0.88
-1.28
-1.52
-1.81
-2.26
-2.91
-3.66
-4.45
-5.28
-6.33
-7.79
-9.72
-12.01
-14.32
-16.14
-17.04
-16.76
-15.28
-12.82
-9.7
-6.12
-2.2
2.0
6.51
11.23
16.01
20.64
24.9
28.57
31.52
33.63
34.84
35.15
34.7
33.66
32.3
30.88
29.54
28.33
27.21
26.14
25.04
23.86
22.58
21.17
19.68
18.16
16.71
15.28
13.74
11.85
9.42
6.37
2.83
-0.94
-4.67
-8.17
-11.49
-14.76
-18.16
-21.82
-25.71
-29.69
-33.45
-36.65
-38.86
-39.67
-38.82
-36.29
-32.39
-27.63
-22.62
-17.72
-13.08
-8.57
-3.97
0.85
5.82
10.6
14.81
18.08
20.27
21.37
21.47
20.69
19.09
16.87
14.33
11.96
10.31
9.84
10.67
12.56
14.94
17.06
18.33
18.36
17.12
14.73
11.51
7.81
3.95
0.2
-3.27
-6.35
-9.07
-11.39
-13.32
-14.75
-15.61
-15.86
-15.59
-15.1
-14.69
-14.63
-15.07
-15.9
-16.83
-17.33
-16.84
-14.82
-11.08
-5.77
0.55
7.05
12.94
17.63
20.91
22.94
24.08
24.65
24.87
24.77
24.29
23.45
22.37
21.26
20.28
19.46
18.67
17.71
16.47
14.99
13.6
12.62
12.29
12.53
13.02
13.27
12.87
11.65
9.73
7.56
5.61
4.31
3.84
4.09
4.79
5.48
5.82
5.61
4.97
4.11
3.28
2.63
2.05
1.31
0.19
-1.35
-3.2
-5.13
-6.97
-8.7
-10.38
-12.01
-13.4
-14.17
-13.92
-12.47
-9.93
-6.74
-3.52
-0.76
1.21
2.32
2.63
2.19
1.04
-0.8
-3.19
-5.91
-8.58
-10.83
-12.42
-13.24
-13.4
-13.11
-12.56
-11.98
-11.54
-11.32
-11.35
-11.63
-12.06
-12.59
-13.14
-13.64
-14.02
-14.16
-13.88
-13.21
-12.24
-11.26
-10.57
-10.29
-10.22
-9.88
-8.71
-6.25
-2.42
2.54
8.28
14.44
20.88
27.57
34.44
41.2
47.39
52.49
56.17
58.42
59.42
59.36
58.18
55.54
50.97
44.15
35.12
24.42
12.9
1.44
-9.11
-18.23
-25.64
-31.33
-35.51
-38.6
-41.09
-43.38
-45.75
-48.22
-50.64
-52.82
-54.51
-55.52
-55.66
-54.79
-52.68
-49.17
-44.27
-38.18
-31.44
-24.71
-18.71
-13.92
-10.51
-8.32
-7.0
-6.16
-5.44
-4.59
-3.33
-1.35
1.57
5.54
10.3
15.3
19.83
23.31
25.41
26.22
26.03
25.29
24.37
23.51
22.84
22.44
22.36
22.54
22.88
23.19
23.26
22.92
22.05
20.71
19.03
17.28
15.7
14.52
13.85
13.59
13.55
13.46
13.07
12.2
10.78
8.78
6.21
3.23
0.06
-2.88
-5.17
-6.45
-6.58
-5.69
-4.11
-2.28
-0.59
0.71
1.62
2.26
2.9
3.76
4.97
6.49
8.06
9.35
10.04
9.97
9.18
7.91
6.44
5.01
3.73
2.54
1.35
0.06
-1.29
-2.57
-3.67
-4.49
-5.08
-5.47
-5.74
-5.95
-6.17
-6.58
-7.41
-8.92
-11.3
-14.52
-18.29
-22.1
-25.31
-27.35
-27.86
-26.74
-24.27
-20.83
-16.91
-12.83
-8.81
-4.89
-1.16
2.26
5.2
7.47
9.02
9.88
10.24
10.27
10.02
9.51
8.68
7.62
6.5
5.66
5.3
5.45
5.86
6.06
5.58
4.1
1.59
-1.76
-5.57
-9.44
-13.08
-16.29
-19.08
-21.62
-24.3
-27.57
-31.86
-37.27
-43.4
-49.42
-54.15
-56.48
-55.64
-51.52
-44.57
-35.65
-25.73
-15.63
-5.99
2.84
10.59
17.07
22.03
25.2
26.35
25.39
22.52
18.23
13.33
8.64
4.87
2.35
1.01
0.58
0.76
1.37
2.33
3.57
4.89
5.89
6.16
5.33
3.35
0.36
-3.34
-7.55
-12.19
-17.19
-22.33
-26.92
-29.97
-30.36
-27.37
-20.97
-11.99
-1.71
8.52
17.75
25.54
31.83
36.63
39.9
41.46
41.27
39.5
36.63
33.37
30.44
28.33
27.2
26.85
26.88
26.87
26.51
25.68
24.43
22.91
21.2
19.3
17.15
14.58
11.57
8.13
4.39
0.52
-3.28
-6.86
-10.14
-13.11
-15.91
-18.76
-21.98
-25.91
-30.83
-36.84
-43.63
-50.34
-55.61
-57.87
-55.9
-49.3
-38.69
-25.59
-11.82
1.05
12.09
21.16
28.55
34.71
39.87
44.1
47.38
49.73
51.35
52.48
53.36
54.08
54.53
54.52
53.83
52.41
50.38
47.93
45.3
